?? [s],A 1.dY [mm],B1.dY [mm],C1.dY [mm]
0.000000,0.000000,0.000000,0.000000
10.000000,0.104512,0.104246,0.103508
20.000000,0.263430,0.262814,0.260874
30.000000,0.434850,0.433437,0.430489
40.000000,0.585145,0.582845,0.578899
50.000000,0.734263,0.730905,0.726117
60.000000,0.899469,0.895345,0.889385
70.000000,1.044431,1.039595,1.032935
80.000000,1.193158,1.187791,1.180301
90.000000,1.332194,1.326276,1.318160
100.000000,1.470237,1.463984,1.454883
110.000000,1.610371,1.603518,1.594083
120.000000,1.751778,1.744776,1.734826
130.000000,1.886650,1.879449,1.869205
140.000000,2.023424,2.015792,2.004835
150.000000,2.153264,2.144803,2.133081
160.000000,2.286273,2.276879,2.264482
170.000000,2.418420,2.408392,2.395077
180.000000,2.554944,2.544859,2.530618
190.000000,2.699183,2.688809,2.674141
200.000000,2.857533,2.847377,2.832273
210.000000,3.027361,3.016769,3.001939
220.000000,3.195833,3.185274,3.170461
230.000000,3.354877,3.344138,3.329548
240.000000,3.502295,3.491314,3.476168
250.000000,3.647034,3.635713,3.620039
260.000000,3.774733,3.763038,3.746904
270.000000,3.902119,3.890394,3.874040
280.000000,4.026235,4.014321,3.997707
290.000000,4.154752,4.142705,4.125735
300.000000,4.274994,4.262942,4.245577
310.000000,4.388675,4.376897,4.358280
320.000000,4.497411,4.485476,4.465525
330.000000,4.608670,4.596459,4.574929
340.000000,4.711726,4.699618,4.676891
350.000000,4.809580,4.798156,4.773860
360.000000,4.903935,4.893099,4.867712
370.000000,4.998079,4.988267,4.961348
380.000000,5.099321,5.090241,5.062179
390.000000,5.192624,5.184999,5.155191
400.000000,5.284080,5.277599,5.246236
410.000000,5.369877,5.365221,5.331863
420.000000,5.459172,5.456325,5.420880
430.000000,5.549263,5.548328,5.510798
440.000000,5.637142,5.638284,5.598481
450.000000,5.724285,5.727403,5.685504
460.000000,5.787606,5.791857,5.748417
470.000000,5.823347,5.828268,5.783909
471.000014,5.832337,5.837156,5.792710
472.000014,5.835140,5.840308,5.795639
473.000014,5.837112,5.842344,5.797707
474.000014,5.840322,5.845951,5.800907
475.000014,5.844259,5.850091,5.804910
476.000014,5.850304,5.856463,5.810805
477.000014,5.860342,5.866554,5.820734
478.000014,5.874085,5.880646,5.834389
479.000014,5.890493,5.897548,5.850819
480.000014,5.906760,5.914503,5.867164
481.000014,5.923258,5.931608,5.883617
482.000014,5.939500,5.948222,5.899804
483.000014,5.953296,5.962253,5.913486
484.000014,5.965212,5.974657,5.925447
485.000014,5.974587,5.984382,5.934831
486.000014,5.983991,5.994303,5.944341
487.000014,5.991517,6.001649,5.951681
488.000014,5.998517,6.008568,5.958639
489.000014,6.003673,6.013918,5.963869
490.000014,6.007893,6.018735,5.968245
491.000014,6.011277,6.022749,5.971706
492.000014,6.013625,6.025379,5.973958
493.000014,6.018095,6.029718,5.978286
494.000014,6.025867,6.037359,5.985965
495.000014,6.037399,6.049084,5.997448
496.000014,6.050494,6.062809,6.010733
497.000014,6.063776,6.076432,6.023951
498.000014,6.076373,6.089298,6.036604
499.000014,6.087257,6.100566,6.047459
500.000014,6.096616,6.110334,6.056865
501.000014,6.104262,6.117934,6.064486
502.000014,6.111985,6.125360,6.072017
503.000014,6.117483,6.131052,6.077566
504.000014,6.122249,6.136233,6.082309
505.000014,6.128763,6.143390,6.088986
506.000014,6.137530,6.152508,6.097769
507.000014,6.147217,6.162592,6.107545
508.000014,6.160271,6.175883,6.120629
509.000014,6.172853,6.189080,6.133316
510.000014,6.185742,6.202379,6.146224
511.000014,6.195084,6.212020,6.155375
512.000014,6.202520,6.219304,6.162738
513.000014,6.210392,6.227383,6.170587
514.000014,6.215845,6.233174,6.176032
515.000014,6.221514,6.239236,6.181730
516.000014,6.225928,6.243820,6.185948
517.000014,6.230651,6.248488,6.190843
518.000014,6.237998,6.255995,6.198110
519.000014,6.248167,6.266426,6.208402
520.000014,6.259901,6.278484,6.220087
521.000014,6.273071,6.291964,6.233167
522.000014,6.284948,6.304395,6.245037
523.000014,6.294293,6.314364,6.254479
524.000014,6.303303,6.323695,6.263554
525.000014,6.309768,6.330287,6.269991
526.000014,6.317099,6.337848,6.277250
527.000014,6.323785,6.345043,6.283934
528.000014,6.330574,6.352239,6.290748
529.000014,6.341065,6.362961,6.301175
530.000014,6.348439,6.370421,6.308473
531.000014,6.357952,6.380020,6.317951
532.000014,6.366928,6.389495,6.327085
533.000014,6.376374,6.399554,6.336675
534.000014,6.385020,6.408684,6.345370
535.000014,6.393833,6.417679,6.354043
536.000014,6.403011,6.426924,6.363003
537.000014,6.412515,6.436865,6.372544
538.000014,6.420164,6.444731,6.380206
539.000014,6.428790,6.453558,6.388922
540.000014,6.438180,6.463127,6.398106
541.000014,6.447452,6.472803,6.407395
542.000014,6.455785,6.481736,6.415800
543.000014,6.464514,6.490826,6.424720
544.000014,6.473398,6.499723,6.433312
545.000014,6.482867,6.509360,6.442620
546.000014,6.491651,6.518404,6.451268
547.000014,6.499280,6.526608,6.459144
548.000014,6.507812,6.535422,6.467750
549.000014,6.516507,6.544235,6.476383
550.000014,6.525474,6.553652,6.485170
551.000014,6.533711,6.562443,6.493446
552.000014,6.541554,6.570928,6.501392
553.000014,6.549897,6.579317,6.509768
554.000014,6.558320,6.587846,6.518025
555.000014,6.566707,6.596317,6.526343
556.000014,6.574907,6.604992,6.534513
557.000014,6.583541,6.614018,6.543278
558.000014,6.591915,6.622634,6.551623
559.000014,6.600636,6.631734,6.560261
560.000014,6.610081,6.641679,6.569668
561.000014,6.620948,6.653217,6.580672
562.000014,6.631981,6.664650,6.591799
563.000014,6.642136,6.674948,6.601839
564.000014,6.650996,6.684157,6.610536
565.000014,6.657894,6.691459,6.617424
566.000014,6.665520,6.699480,6.625120
567.000014,6.673951,6.708083,6.633416
568.000014,6.682344,6.716593,6.641636
569.000014,6.689594,6.724118,6.648822
570.000014,6.696949,6.731903,6.656340
571.000014,6.705003,6.740426,6.664650
572.000014,6.713206,6.749137,6.672774
573.000014,6.721607,6.757823,6.680928
574.000014,6.729825,6.766288,6.689000
575.000014,6.739309,6.775926,6.698584
576.000014,6.748707,6.785728,6.708107
577.000014,6.757252,6.794709,6.716551
578.000014,6.768456,6.806319,6.727690
579.000014,6.777687,6.816059,6.737035
580.000014,6.788155,6.826950,6.747618
581.000014,6.796140,6.835437,6.755496
582.000014,6.805843,6.845415,6.764993
583.000014,6.814992,6.854872,6.774033
584.000014,6.821698,6.861846,6.780793
585.000014,6.827622,6.868071,6.786783
586.000014,6.832811,6.873540,6.792049
587.000014,6.840342,6.881232,6.799481
588.000014,6.849824,6.891049,6.808989
589.000014,6.862342,6.904054,6.821480
590.000014,6.873701,6.915936,6.833004
590.500026,6.882724,6.925297,6.841914
591.000026,6.889532,6.932234,6.848537
591.500026,6.895961,6.938870,6.854857
592.000026,6.901463,6.944525,6.860417
592.500026,6.906157,6.949387,6.865192
593.000026,6.909989,6.953341,6.869052
593.500026,6.914023,6.957803,6.873119
594.000026,6.918775,6.962907,6.877870
594.500026,6.923205,6.967613,6.882256
595.000026,6.926473,6.970754,6.885422
595.500026,6.928239,6.972486,6.887173
596.000026,6.929835,6.974119,6.888620
596.500026,6.931789,6.976165,6.890370
597.000026,6.934264,6.978757,6.892821
597.500026,6.936585,6.981096,6.895109
598.000026,6.938615,6.983145,6.897252
598.500026,6.940627,6.985246,6.899264
599.000026,6.942760,6.987437,6.901537
599.500026,6.945843,6.990600,6.904649
600.000026,6.949851,6.994866,6.908710
600.500026,6.954822,7.000423,6.913684
601.000026,6.960120,7.006262,6.918970
601.500026,6.965978,7.012315,6.924600
602.000026,6.972091,7.018174,6.930583
602.500026,6.978162,7.024046,6.936651
603.000026,6.983528,7.029660,6.942190
603.500026,6.988539,7.035308,6.947357
604.000026,6.993165,7.040699,6.952078
604.500026,6.998304,7.045826,6.957105
605.000026,7.003636,7.051298,6.962356
605.500026,7.009803,7.057285,6.968223
606.000026,7.015564,7.063215,6.973973
606.500026,7.021000,7.068666,6.979383
607.000026,7.025720,7.073830,6.984356
607.500026,7.029649,7.078003,6.988255
608.000026,7.032840,7.081527,6.991446
608.500026,7.035408,7.084148,6.993918
609.000026,7.037888,7.086899,6.996424
609.500026,7.040775,7.089947,6.999285
610.000026,7.043706,7.093017,7.002185
610.500026,7.046750,7.096287,7.005213
611.000026,7.049765,7.099138,7.008143
611.500026,7.053439,7.102861,7.011645
612.000026,7.058477,7.107975,7.016564
612.500026,7.064779,7.114650,7.022895
613.000026,7.071756,7.122052,7.030019
613.500026,7.078614,7.129332,7.037029
614.000026,7.084196,7.135306,7.042651
614.500026,7.088401,7.139621,7.046844
615.000026,7.091815,7.142740,7.050018
615.500026,7.095540,7.146553,7.053563
616.000026,7.100077,7.151330,7.058044
616.500026,7.104219,7.155810,7.062384
617.000026,7.107537,7.159141,7.065797
617.500026,7.109187,7.160878,7.067462
618.000026,7.110547,7.162408,7.068674
618.500026,7.112253,7.164414,7.070360
619.000026,7.114959,7.167264,7.072970
619.500026,7.117295,7.169858,7.075312
620.000026,7.119448,7.172063,7.077402
620.500026,7.121878,7.174699,7.079919
621.000026,7.126405,7.179363,7.084476
621.500026,7.133108,7.186211,7.091172
622.000026,7.141034,7.194365,7.099095
622.500026,7.148665,7.202382,7.106747
623.000026,7.155202,7.209373,7.113266
623.500026,7.161364,7.215898,7.119404
624.000026,7.168151,7.223041,7.126152
624.500026,7.176110,7.231259,7.134115
625.000026,7.183782,7.239361,7.141608
625.500026,7.190392,7.246235,7.148115
626.000026,7.195337,7.251674,7.153086
626.500026,7.200045,7.256279,7.157830
627.000026,7.204543,7.260965,7.162394
627.500026,7.209072,7.265407,7.166833
628.000026,7.213238,7.269658,7.171000
628.500026,7.216682,7.273148,7.174317
629.000026,7.219568,7.276096,7.177189
629.500026,7.221750,7.278294,7.179199
630.000026,7.224098,7.280755,7.181534
630.500026,7.226345,7.283170,7.183730
631.000026,7.229043,7.286089,7.186508
631.500026,7.231848,7.289158,7.189310
632.000026,7.234780,7.292340,7.192256
632.500026,7.237522,7.295428,7.195011
633.000026,7.240579,7.298582,7.198038
633.500026,7.243363,7.301539,7.200763
634.000026,7.246182,7.304316,7.203576
634.500026,7.248974,7.307040,7.206416
635.000026,7.252582,7.310523,7.209960
635.500026,7.256687,7.314811,7.213961
636.000026,7.260906,7.319222,7.218155
636.500026,7.266184,7.324923,7.223508
637.000026,7.272496,7.331674,7.229764
637.500026,7.279153,7.338840,7.236422
638.000026,7.285496,7.345441,7.242704
638.500026,7.291647,7.351626,7.248904
639.000026,7.297359,7.357561,7.254515
639.500026,7.302962,7.363585,7.260103
640.000026,7.308552,7.369727,7.265635
640.500026,7.314093,7.375402,7.271076
641.000026,7.318871,7.380096,7.275664
641.500026,7.322156,7.383286,7.278980
642.000026,7.325452,7.386670,7.282357
642.500026,7.329131,7.390654,7.286144
643.000026,7.333348,7.395103,7.290267
643.500026,7.336800,7.398540,7.293646
644.000026,7.339132,7.400703,7.295868
644.500026,7.340712,7.402541,7.297483
645.000026,7.342190,7.404223,7.298835
645.500026,7.343522,7.405818,7.300182
646.000026,7.345238,7.407559,7.301802
646.500026,7.347985,7.410669,7.304586
647.000026,7.351962,7.414959,7.308510
647.500026,7.355978,7.419149,7.312505
648.000026,7.360711,7.424148,7.317267
648.500026,7.366591,7.430154,7.323209
649.000026,7.373997,7.437804,7.330552
649.500026,7.381457,7.445523,7.337929
650.000026,7.388341,7.452819,7.344738
650.500026,7.394665,7.459339,7.351030
651.000026,7.401643,7.466392,7.357944
651.500026,7.408392,7.473278,7.364575
652.000026,7.414760,7.480127,7.370910
652.500026,7.419916,7.485601,7.376021
653.000026,7.424487,7.490504,7.380600
653.500026,7.428973,7.494986,7.385081
654.000026,7.433510,7.499838,7.389570
654.500026,7.438689,7.505287,7.394691
655.000026,7.442938,7.509981,7.398838
655.500026,7.445740,7.512593,7.401513
656.000026,7.447105,7.514006,7.402901
656.500026,7.448914,7.515504,7.404711
657.000026,7.451915,7.518701,7.407879
657.500026,7.455142,7.521904,7.411114
658.000026,7.457794,7.524926,7.413802
658.500026,7.459582,7.526851,7.415434
659.000026,7.460659,7.528112,7.416303
659.500026,7.462261,7.529814,7.417838
660.000026,7.465369,7.533369,7.421003
660.500026,7.470585,7.538960,7.426315
661.000026,7.477734,7.546564,7.433358
661.500026,7.484093,7.553037,7.439682
662.000026,7.489507,7.558531,7.445001
662.500026,7.493918,7.563172,7.449449
663.000026,7.498981,7.568582,7.454504
663.500026,7.504681,7.574783,7.460243
664.000026,7.510649,7.581006,7.466123
664.500026,7.516810,7.587469,7.472278
665.000026,7.521932,7.592846,7.477333
665.500026,7.526428,7.597305,7.481781
666.000026,7.528860,7.599797,7.484084
666.500026,7.531194,7.602182,7.486391
667.000026,7.533289,7.604716,7.488545
667.500026,7.537149,7.608758,7.492399
668.000026,7.542164,7.613890,7.497303
668.500026,7.546278,7.618106,7.501348
669.000026,7.549237,7.621344,7.504246
669.500026,7.551178,7.623470,7.506164
670.000026,7.554161,7.626571,7.509071
670.500026,7.558441,7.631085,7.513278
671.000026,7.563521,7.636332,7.518245
671.500026,7.568866,7.641958,7.523477
672.000026,7.574479,7.647840,7.529002
672.500026,7.580483,7.654173,7.535003
673.000026,7.586738,7.660714,7.541199
673.500026,7.592813,7.667141,7.547134
674.000026,7.598722,7.673373,7.552975
674.500026,7.604360,7.679462,7.558571
675.000026,7.609618,7.684737,7.563783
675.500026,7.613874,7.689179,7.568031
676.000026,7.617945,7.693427,7.572118
676.500026,7.621546,7.697166,7.575761
677.000026,7.624889,7.700880,7.579153
677.500026,7.627509,7.703645,7.581843
678.000026,7.629942,7.706412,7.584321
678.500026,7.632069,7.708383,7.586318
679.000026,7.634228,7.710422,7.588268
679.500026,7.636220,7.712351,7.590109
680.000026,7.638823,7.715128,7.592672
680.500026,7.642447,7.718997,7.596240
681.000026,7.646696,7.723335,7.600368
681.500026,7.652067,7.729080,7.605618
682.000026,7.657876,7.735302,7.611411
682.500026,7.664306,7.742446,7.618013
683.000026,7.670907,7.749374,7.624552
683.500026,7.677676,7.756409,7.631243
684.000026,7.684757,7.763868,7.638064
684.500026,7.691626,7.771222,7.644863
685.000026,7.697536,7.777667,7.650855
685.500026,7.702526,7.782816,7.655838
686.000026,7.707190,7.787733,7.660427
686.500026,7.712035,7.792687,7.665156
687.000026,7.716988,7.797907,7.670064
687.500026,7.721111,7.802073,7.674115
688.000026,7.724408,7.805498,7.677226
688.500026,7.726520,7.807705,7.679336
689.000026,7.729354,7.810804,7.682180
689.500026,7.732070,7.813867,7.684906
690.000026,7.734860,7.816732,7.687600
690.500026,7.737069,7.819000,7.689794
691.000026,7.739870,7.821882,7.692681
691.500026,7.742397,7.824698,7.695215
692.000026,7.744435,7.826784,7.697184
692.500026,7.745377,7.827734,7.698048
693.000026,7.748010,7.830444,7.700629
693.500026,7.752186,7.834844,7.704839
694.000026,7.758011,7.840863,7.710458
694.500026,7.763880,7.847100,7.716225
695.000026,7.769586,7.853193,7.721789
695.500026,7.774592,7.858416,7.726770
696.000026,7.778839,7.862914,7.730955
696.500026,7.783090,7.867572,7.735163
697.000026,7.788354,7.873306,7.740358
697.500026,7.794271,7.879502,7.746179
698.000026,7.799548,7.884893,7.751403
698.500026,7.804322,7.889819,7.756042
699.000026,7.808848,7.894555,7.760459
699.500026,7.814152,7.900264,7.765648
700.000026,7.819784,7.906439,7.771331
700.500026,7.824576,7.911669,7.776166
701.000026,7.827987,7.915298,7.779504
701.500026,7.830224,7.917707,7.781700
702.000026,7.832947,7.920384,7.784317
702.500026,7.836438,7.923857,7.787703
703.000026,7.839928,7.927301,7.790955
703.500026,7.842457,7.930063,7.793391
704.000026,7.844750,7.932564,7.795501
704.500026,7.847649,7.935796,7.798354
705.000026,7.852004,7.940421,7.802570
705.500026,7.857063,7.946028,7.807593
706.000026,7.863257,7.952704,7.813919
706.500026,7.870363,7.960275,7.820943
707.000026,7.877708,7.967941,7.828234
707.500026,7.884624,7.975135,7.834803
708.000026,7.890378,7.981131,7.840369
708.500026,7.895125,7.986165,7.844856
709.000026,7.899377,7.990653,7.849014
709.500026,7.903511,7.995111,7.853210
710.000026,7.907735,7.999617,7.857570
710.500026,7.910636,8.002803,7.860554
711.000026,7.913153,8.005525,7.862923
711.500026,7.915915,8.008209,7.865546
712.000026,7.919975,8.012415,7.869403
712.500026,7.923837,8.016488,7.873175
713.000026,7.926997,8.019927,7.876017
713.500026,7.929203,8.022202,7.877993
714.000026,7.931185,8.024379,7.879903
714.500026,7.933723,8.026914,7.882422
715.000026,7.937379,8.030840,7.886047
715.500026,7.941396,8.035078,7.889923
716.000026,7.945391,8.039550,7.894067
716.500026,7.949234,8.043663,7.897940
717.000026,7.954528,8.049155,7.903083
717.500026,7.961085,8.055864,7.909365
718.000026,7.968889,8.064015,7.916966
718.500026,7.976602,8.072383,7.924484
719.000026,7.982640,8.079178,7.930392
719.500026,7.987489,8.084486,7.935161
720.000026,7.992604,8.089750,7.940290
720.500026,7.998814,8.096378,7.946482
721.000026,8.004369,8.102207,7.951800
721.500026,8.008058,8.106286,7.955311
722.000026,8.011369,8.109738,7.958277
722.500026,8.014901,8.113432,7.961594
723.000026,8.018861,8.117490,7.965374
723.500026,8.021949,8.120489,7.968290
724.000026,8.024391,8.123191,7.970681
724.500026,8.026153,8.125214,7.972390
725.000026,8.028119,8.127611,7.974481
725.500026,8.030840,8.130745,7.977132
726.000026,8.034130,8.134201,7.980380
726.500026,8.037317,8.137703,7.983425
727.000026,8.040621,8.140963,7.986644
727.500026,8.044177,8.144711,7.990082
728.000026,8.048305,8.148837,7.993872
728.500026,8.052782,8.153688,7.998151
729.000026,8.057933,8.159264,8.003070
729.500026,8.063911,8.165718,8.009104
730.000026,8.070262,8.172358,8.015330
730.500026,8.077168,8.179601,8.021747
731.000026,8.083951,8.186914,8.028148
731.500026,8.090472,8.193916,8.034355
732.000026,8.095760,8.199441,8.039551
732.500026,8.100178,8.204317,8.043759
733.000026,8.104111,8.208616,8.047510
733.500026,8.108134,8.213280,8.051475
734.000026,8.112304,8.217544,8.055467
734.500026,8.115955,8.221310,8.059094
735.000026,8.119422,8.224906,8.062461
735.500026,8.122579,8.228259,8.065325
736.000026,8.125489,8.231551,8.067927
736.500026,8.127934,8.234079,8.070102
737.000026,8.129865,8.236296,8.072082
737.500026,8.132172,8.238639,8.074190
738.000026,8.135169,8.241918,8.076908
738.500026,8.139360,8.246257,8.080848
739.000026,8.145084,8.252350,8.086379
739.500026,8.151435,8.259403,8.092764
740.000026,8.157311,8.265696,8.098487
740.500026,8.161401,8.270146,8.102402
741.000026,8.164398,8.273100,8.105025
741.500026,8.167378,8.276314,8.107712
742.000026,8.171201,8.280577,8.111134
742.500026,8.175606,8.285268,8.115396
743.000026,8.179732,8.289753,8.119393
743.500026,8.182703,8.292872,8.122272
744.000026,8.185389,8.295898,8.124700
744.500026,8.188046,8.298930,8.127020
745.000026,8.191347,8.302793,8.130267
745.500026,8.195229,8.307253,8.134090
746.000026,8.199795,8.312194,8.138606
746.500026,8.204655,8.317258,8.143113
747.000026,8.209240,8.321913,8.147277
747.500026,8.214654,8.327734,8.152251
748.000026,8.220941,8.334554,8.158133
748.500026,8.227889,8.342201,8.164785
749.000026,8.233969,8.348868,8.170569
749.500026,8.239020,8.354628,8.175395
750.000026,8.243747,8.359739,8.179535
750.500026,8.248514,8.364776,8.183881
751.000026,8.253517,8.369884,8.188342
751.500026,8.257867,8.374542,8.192288
752.000026,8.262005,8.379026,8.195921
752.500026,8.265644,8.383236,8.199258
753.000026,8.269052,8.387172,8.202438
753.500026,8.272043,8.390540,8.205239
754.000026,8.274640,8.393276,8.207517
754.500026,8.276783,8.395455,8.209381
755.000026,8.278652,8.397597,8.211029
755.500026,8.281218,8.400377,8.213267
756.000026,8.284370,8.403872,8.216109
756.500026,8.288979,8.408684,8.220293
757.000026,8.294489,8.414565,8.225330
757.500026,8.300724,8.421357,8.231028
758.000026,8.306834,8.428152,8.236515
758.500026,8.313137,8.435218,8.242440
759.000026,8.319832,8.442544,8.248526
759.500026,8.327309,8.450584,8.255293
760.000026,8.334254,8.458086,8.261233
760.500026,8.340250,8.464641,8.266412
761.000026,8.344987,8.470058,8.270404
761.500026,8.349766,8.475395,8.274629
762.000026,8.355049,8.481384,8.279305
762.500026,8.359893,8.486785,8.283644
763.000026,8.363302,8.490763,8.286367
763.500026,8.366131,8.494109,8.288628
764.000026,8.369441,8.497823,8.291230
764.500026,8.373099,8.501919,8.294273
765.000026,8.376024,8.505046,8.296558
765.500026,8.377229,8.506872,8.297354
766.000026,8.378374,8.508068,8.298113
766.500026,8.380090,8.510223,8.299462
767.000026,8.383477,8.513934,8.302504
767.500026,8.386936,8.518119,8.305689
768.000026,8.389964,8.521449,8.308439
768.500026,8.392730,8.524722,8.310896
