?? [s],A 1.dY [mm],B1.dY [mm],C1.dY [mm]
0.000000,0.000000,0.000000,0.000000
10.000000,0.041067,0.041374,0.041149
20.000000,0.149819,0.150335,0.149772
30.000000,0.269957,0.270956,0.270324
40.000000,0.389114,0.390369,0.390024
50.000000,0.465766,0.467646,0.467518
60.000000,0.557364,0.559442,0.559114
70.000000,0.635014,0.637292,0.636398
80.000000,0.712827,0.714996,0.713604
90.000000,0.807962,0.809652,0.807752
100.000000,0.920277,0.921348,0.919029
110.000000,1.064435,1.064948,1.062139
120.000000,1.218926,1.219447,1.216482
130.000000,1.388497,1.389123,1.386038
140.000000,1.551068,1.551902,1.549054
150.000000,1.700858,1.702562,1.700294
160.000000,1.824424,1.826807,1.825129
170.000000,1.950119,1.953238,1.952270
180.000000,2.056054,2.058821,2.057702
190.000000,2.159392,2.161822,2.160175
200.000000,2.244632,2.246477,2.243626
210.000000,2.328825,2.330634,2.326482
220.000000,2.410588,2.412058,2.406730
230.000000,2.492274,2.493639,2.486919
240.000000,2.578059,2.578947,2.571069
250.000000,2.668653,2.669573,2.660160
260.000000,2.754709,2.755383,2.744508
270.000000,2.838105,2.838931,2.826498
280.000000,2.917156,2.918435,2.904488
290.000000,2.999025,3.000907,2.985411
300.000000,3.087174,3.089860,3.072631
310.000000,3.175385,3.178672,3.159942
320.000000,3.262467,3.266600,3.246267
330.000000,3.340950,3.345852,3.324005
340.000000,3.422642,3.428351,3.404681
350.000000,3.504380,3.511184,3.485633
360.000000,3.588484,3.596290,3.568706
370.000000,3.675431,3.684398,3.655019
380.000000,3.763083,3.773290,3.742062
390.000000,3.853560,3.865347,3.832006
400.000000,3.937279,3.950631,3.915224
410.000000,4.020307,4.035190,3.997840
420.000000,4.102481,4.119059,4.079730
430.000000,4.191929,4.210301,4.168698
440.000000,4.281567,4.301713,4.257677
450.000000,4.370625,4.392433,4.346216
460.000000,4.451594,4.475245,4.426818
470.000000,4.509590,4.534547,4.484672
471.000014,4.542818,4.568719,4.517871
472.000014,4.555960,4.582208,4.531016
473.000014,4.567581,4.594165,4.542641
474.000014,4.578073,4.604897,4.553122
475.000014,4.587202,4.614391,4.562426
476.000014,4.594229,4.621690,4.569534
477.000014,4.599690,4.627300,4.574932
478.000014,4.604438,4.631980,4.579439
479.000014,4.608390,4.635921,4.583165
480.000014,4.614691,4.642260,4.589461
481.000014,4.623486,4.651479,4.598539
482.000014,4.634727,4.663059,4.609891
483.000014,4.646379,4.674922,4.621362
484.000014,4.657374,4.686131,4.632297
485.000014,4.667320,4.696453,4.642371
486.000014,4.675751,4.705313,4.650992
487.000014,4.683296,4.712843,4.658241
488.000014,4.689683,4.719163,4.664385
489.000014,4.696746,4.726215,4.671291
490.000014,4.704454,4.734291,4.679249
491.000014,4.712200,4.742375,4.687063
492.000014,4.721281,4.751713,4.696107
493.000014,4.730542,4.761003,4.705049
494.000014,4.739624,4.770273,4.714120
495.000014,4.747716,4.778849,4.722407
496.000014,4.755949,4.787512,4.730772
497.000014,4.764716,4.796550,4.739432
498.000014,4.773942,4.805802,4.748425
499.000014,4.782498,4.814647,4.757132
500.000014,4.790899,4.823385,4.765634
501.000014,4.800205,4.833100,4.774998
502.000014,4.811348,4.844413,4.785972
503.000014,4.823026,4.856338,4.797654
504.000014,4.833805,4.867309,4.808432
505.000014,4.843118,4.876701,4.817587
506.000014,4.850492,4.884123,4.824706
507.000014,4.856820,4.890418,4.830909
508.000014,4.861108,4.894986,4.835209
509.000014,4.865898,4.899890,4.840028
510.000014,4.871866,4.906292,4.846144
511.000014,4.880641,4.915272,4.854820
512.000014,4.892361,4.927364,4.866500
513.000014,4.904964,4.940253,4.879069
514.000014,4.916569,4.952393,4.890878
515.000014,4.927671,4.963840,4.901986
516.000014,4.937445,4.973935,4.911676
517.000014,4.946161,4.982718,4.920201
518.000014,4.953541,4.990329,4.927731
519.000014,4.960816,4.997799,4.935003
520.000014,4.968584,5.005595,4.942381
521.000014,4.976362,5.013425,4.949805
522.000014,4.983721,5.020859,4.957005
523.000014,4.991254,5.028884,4.964977
524.000014,4.998417,5.036461,4.972325
525.000014,5.007198,5.045351,4.980977
526.000014,5.017666,5.056126,4.991367
527.000014,5.030177,5.068998,5.003856
528.000014,5.041692,5.081066,5.015414
529.000014,5.052302,5.091857,5.025892
530.000014,5.060764,5.100526,5.034220
531.000014,5.067672,5.107525,5.041116
532.000014,5.072470,5.112512,5.045959
533.000014,5.077059,5.117265,5.050691
534.000014,5.082228,5.122850,5.055804
535.000014,5.090503,5.131348,5.063941
536.000014,5.100725,5.141748,5.073999
537.000014,5.112739,5.154116,5.086242
538.000014,5.124926,5.166633,5.098417
539.000014,5.135886,5.178015,5.109373
540.000014,5.145347,5.187736,5.118623
541.000014,5.152711,5.195558,5.126180
542.000014,5.159205,5.202505,5.132843
543.000014,5.166431,5.209932,5.139938
544.000014,5.173361,5.216968,5.146722
545.000014,5.180778,5.224474,5.153880
546.000014,5.188073,5.232007,5.161342
547.000014,5.195571,5.239894,5.168970
548.000014,5.204536,5.249121,5.177896
549.000014,5.213532,5.258409,5.186650
550.000014,5.223166,5.268236,5.196059
551.000014,5.231919,5.277453,5.204927
552.000014,5.241662,5.287480,5.214802
553.000014,5.251196,5.297272,5.224283
554.000014,5.260544,5.306799,5.233480
555.000014,5.269897,5.316535,5.242830
556.000014,5.278353,5.325544,5.251445
557.000014,5.288086,5.335613,5.261190
558.000014,5.297126,5.344845,5.269996
559.000014,5.307005,5.354928,5.279872
560.000014,5.315625,5.363887,5.288611
561.000014,5.323305,5.372041,5.296532
562.000014,5.329338,5.378291,5.302449
563.000014,5.334034,5.383162,5.307002
564.000014,5.340509,5.389695,5.313398
565.000014,5.350153,5.399751,5.323078
566.000014,5.362490,5.412457,5.335355
567.000014,5.375831,5.426307,5.348622
568.000014,5.388806,5.439733,5.361680
569.000014,5.400413,5.451994,5.373459
570.000014,5.410165,5.462199,5.383242
571.000014,5.418601,5.470889,5.391448
572.000014,5.425829,5.478111,5.398445
573.000014,5.431525,5.484021,5.404097
574.000014,5.435441,5.487988,5.408017
575.000014,5.439541,5.492427,5.412188
576.000014,5.443957,5.497057,5.416703
577.000014,5.450296,5.503649,5.422933
578.000014,5.461282,5.514961,5.433931
579.000014,5.473395,5.527641,5.446068
580.000014,5.487014,5.541826,5.459614
581.000014,5.498307,5.553425,5.470672
582.000014,5.508496,5.563780,5.480705
583.000014,5.517727,5.573447,5.490149
584.000014,5.524806,5.581027,5.497418
585.000014,5.530234,5.586770,5.502756
586.000014,5.534426,5.591124,5.506762
587.000014,5.538721,5.595410,5.510953
588.000014,5.543718,5.600465,5.515849
589.000014,5.550125,5.607224,5.522435
590.000014,5.557369,5.614947,5.529829
590.500026,5.566192,5.624193,5.538800
591.000026,5.573520,5.631658,5.545907
591.500026,5.580306,5.638696,5.552573
592.000026,5.587413,5.645968,5.559555
592.500026,5.594975,5.653825,5.567140
593.000026,5.602223,5.661368,5.574442
593.500026,5.607428,5.667290,5.579919
594.000026,5.611576,5.671859,5.584105
594.500026,5.615290,5.675794,5.587769
595.000026,5.620490,5.680860,5.592716
595.500026,5.625984,5.686375,5.598263
596.000026,5.631259,5.691584,5.603434
596.500026,5.634410,5.695048,5.606674
597.000026,5.635659,5.696598,5.607910
597.500026,5.636461,5.697812,5.608821
598.000026,5.638760,5.700131,5.611245
598.500026,5.642459,5.703757,5.614771
599.000026,5.646026,5.707342,5.618375
599.500026,5.648264,5.709760,5.620397
600.000026,5.649007,5.710753,5.621380
600.500026,5.650399,5.712240,5.622663
601.000026,5.654470,5.716309,5.626727
601.500026,5.660501,5.722559,5.632787
602.000026,5.666390,5.728789,5.638794
602.500026,5.671062,5.733869,5.643599
603.000026,5.676207,5.739169,5.648598
603.500026,5.682435,5.745607,5.654815
604.000026,5.689209,5.752560,5.661433
604.500026,5.695865,5.759377,5.668011
605.000026,5.701414,5.765099,5.673366
605.500026,5.706133,5.769930,5.678055
606.000026,5.710100,5.774137,5.682067
606.500026,5.714485,5.778541,5.686505
607.000026,5.718227,5.782654,5.690411
607.500026,5.721909,5.786558,5.694228
608.000026,5.724599,5.789708,5.697113
608.500026,5.727386,5.792584,5.699903
609.000026,5.730294,5.795468,5.702560
609.500026,5.733865,5.799122,5.705965
610.000026,5.737699,5.803061,5.709721
610.500026,5.741534,5.807236,5.713746
611.000026,5.745259,5.811067,5.717505
611.500026,5.748057,5.814095,5.720277
612.000026,5.750864,5.817114,5.723096
612.500026,5.754129,5.820627,5.726436
613.000026,5.759498,5.826169,5.731889
613.500026,5.765721,5.832592,5.738068
614.000026,5.772031,5.839041,5.744295
614.500026,5.778280,5.845633,5.750504
615.000026,5.784374,5.852037,5.756529
615.500026,5.790150,5.858315,5.762367
616.000026,5.794758,5.863181,5.767083
616.500026,5.798821,5.867393,5.771223
617.000026,5.802974,5.871691,5.775329
617.500026,5.807624,5.876393,5.779851
618.000026,5.811472,5.880413,5.783734
618.500026,5.814527,5.883392,5.786744
619.000026,5.816464,5.885486,5.788651
619.500026,5.818494,5.887588,5.790523
620.000026,5.820678,5.889988,5.792650
620.500026,5.823014,5.892433,5.795017
621.000026,5.825136,5.894757,5.797267
621.500026,5.827424,5.897303,5.799633
622.000026,5.830668,5.900786,5.802877
622.500026,5.835467,5.905950,5.807806
623.000026,5.841880,5.912565,5.814236
623.500026,5.848832,5.919779,5.821150
624.000026,5.855663,5.926894,5.827727
624.500026,5.862366,5.934056,5.834436
625.000026,5.869110,5.941191,5.841198
625.500026,5.875501,5.947905,5.847750
626.000026,5.881504,5.954058,5.853693
626.500026,5.886724,5.959598,5.859065
627.000026,5.892346,5.965363,5.864575
627.500026,5.897313,5.970636,5.869595
628.000026,5.902160,5.975684,5.874268
628.500026,5.906017,5.979853,5.878215
629.000026,5.909472,5.983590,5.881766
629.500026,5.912094,5.986479,5.884501
630.000026,5.914528,5.989040,5.886915
630.500026,5.917182,5.991793,5.889504
631.000026,5.920168,5.994815,5.892481
631.500026,5.922494,5.997275,5.894844
632.000026,5.924411,5.999324,5.896778
632.500026,5.926232,6.001293,5.898658
633.000026,5.929109,6.004327,5.901537
633.500026,5.932364,6.007683,5.904760
634.000026,5.935083,6.010487,5.907394
634.500026,5.936692,6.012265,5.909019
635.000026,5.938310,6.014081,5.910602
635.500026,5.941510,6.017557,5.913846
636.000026,5.946452,6.022778,5.918768
636.500026,5.951953,6.028619,5.924384
637.000026,5.956637,6.033535,5.929135
637.500026,5.961287,6.038507,5.933960
638.000026,5.966904,6.044298,5.939573
638.500026,5.974040,6.051811,5.946667
639.000026,5.981481,6.059561,5.953856
639.500026,5.987980,6.066523,5.960343
640.000026,5.993842,6.072815,5.966187
640.500026,5.999909,6.079226,5.972496
641.000026,6.006727,6.086368,5.979362
641.500026,6.012921,6.092813,5.985686
642.000026,5.997175,6.075867,5.969717
642.500026,5.979914,6.057329,5.952305
643.000026,5.962120,6.038277,5.934358
643.500026,5.964903,6.041244,5.937224
644.000026,5.968047,6.044657,5.940589
644.500026,5.971353,6.048253,5.944109
645.000026,5.973897,6.051006,5.946817
645.500026,5.975553,6.052721,5.948379
646.000026,5.976629,6.053786,5.949352
646.500026,5.977699,6.054859,5.950212
647.000026,5.978526,6.055751,5.951104
647.500026,5.979177,6.056469,5.951821
648.000026,5.979472,6.056725,5.952272
648.500026,5.979515,6.056870,5.952489
649.000026,5.979345,6.056712,5.952345
649.500026,5.979229,6.056775,5.952272
650.000026,5.979531,6.057017,5.952386
650.500026,5.980804,6.058193,5.953431
651.000026,5.983167,6.060709,5.955839
651.500026,5.985888,6.063684,5.958592
652.000026,5.988566,6.066502,5.961258
652.500026,5.990964,6.068937,5.963615
653.000026,5.993402,6.071475,5.966086
653.500026,5.996352,6.074906,5.969270
654.000026,6.000425,6.079409,5.973530
654.500026,6.006904,6.086183,5.980133
655.000026,6.014716,6.094419,5.988042
655.500026,6.023513,6.103546,5.996865
656.000026,6.032281,6.112840,6.005740
656.500026,6.042024,6.122839,6.015655
657.000026,6.052436,6.133560,6.025953
657.500026,6.063275,6.144914,6.036868
658.000026,6.073989,6.156437,6.047675
658.500026,6.084174,6.167274,6.058161
659.000026,6.093284,6.176680,6.067155
659.500026,6.101518,6.185017,6.075184
660.000026,6.109542,6.193387,6.083107
660.500026,6.117094,6.201524,6.090797
661.000026,6.123832,6.208851,6.097697
661.500026,6.129654,6.215046,6.103619
662.000026,6.135192,6.220933,6.109151
662.500026,6.140920,6.226936,6.114802
663.000026,6.145419,6.231861,6.119168
663.500026,6.149020,6.235723,6.122724
664.000026,6.151769,6.238785,6.125571
664.500026,6.155332,6.242629,6.129246
665.000026,6.159143,6.246716,6.133191
665.500026,6.162724,6.250556,6.136820
666.000026,6.166221,6.254246,6.140432
666.500026,6.169502,6.257729,6.143644
667.000026,6.172235,6.260631,6.146443
667.500026,6.173543,6.262015,6.147667
668.000026,6.174081,6.262572,6.148297
668.500026,6.174630,6.263307,6.148841
669.000026,6.176300,6.265102,6.150426
669.500026,6.178252,6.267204,6.152186
670.000026,6.179914,6.268891,6.153712
670.500026,6.180845,6.269916,6.154676
671.000026,6.181915,6.271176,6.155841
671.500026,6.183907,6.273235,6.157759
672.000026,6.186312,6.275759,6.160092
672.500026,6.188009,6.277506,6.161705
673.000026,6.188679,6.278200,6.162458
673.500026,6.190064,6.279900,6.163977
674.000026,6.193358,6.283494,6.167482
674.500026,6.198207,6.288813,6.172442
675.000026,6.203207,6.294020,6.177549
675.500026,6.207995,6.299221,6.182470
676.000026,6.212953,6.304486,6.187447
676.500026,6.218815,6.310660,6.193217
677.000026,6.225211,6.317241,6.199432
677.500026,6.231443,6.323816,6.205683
678.000026,6.237358,6.330208,6.211668
678.500026,6.244204,6.337549,6.218640
679.000026,6.251810,6.345753,6.226396
679.500026,6.259460,6.353929,6.233998
680.000026,6.265998,6.360921,6.240475
680.500026,6.271366,6.366668,6.245705
681.000026,6.276155,6.371975,6.250742
681.500026,6.280794,6.377091,6.255494
682.000026,6.285712,6.382387,6.260595
682.500026,6.290429,6.387427,6.265303
683.000026,6.294696,6.392131,6.269633
683.500026,6.298546,6.396302,6.273418
684.000026,6.301710,6.399724,6.276575
684.500026,6.304009,6.402124,6.278878
685.000026,6.305759,6.403902,6.280636
685.500026,6.307132,6.405394,6.281951
686.000026,6.309104,6.407545,6.283824
686.500026,6.311858,6.410738,6.286699
687.000026,6.314724,6.413904,6.289634
687.500026,6.317301,6.416858,6.292400
688.000026,6.319566,6.419362,6.294616
688.500026,6.323271,6.423516,6.298543
689.000026,6.328135,6.428694,6.303378
689.500026,6.333479,6.434504,6.308863
690.000026,6.338261,6.439430,6.313395
690.500026,6.342934,6.444524,6.318101
691.000026,6.348664,6.450615,6.323799
691.500026,6.355465,6.458087,6.330843
692.000026,6.361821,6.465079,6.337452
692.500026,6.366987,6.470784,6.342890
693.000026,6.370789,6.475059,6.346799
693.500026,6.374915,6.479328,6.350794
694.000026,6.379140,6.483811,6.354796
694.500026,6.383017,6.487832,6.358521
695.000026,6.386691,6.491912,6.362116
695.500026,6.390081,6.495607,6.365453
696.000026,6.393442,6.499403,6.368875
696.500026,6.396501,6.502846,6.372034
697.000026,6.399513,6.506405,6.375341
697.500026,6.402814,6.510193,6.378894
698.000026,6.406156,6.513819,6.382352
698.500026,6.409578,6.517547,6.385825
699.000026,6.412894,6.521036,6.389142
699.500026,6.416211,6.524593,6.392499
700.000026,6.419613,6.528182,6.395740
700.500026,6.424477,6.533233,6.400248
701.000026,6.430323,6.539681,6.406064
701.500026,6.437091,6.547330,6.413329
702.000026,6.443561,6.554762,6.420316
702.500026,6.449575,6.561499,6.426681
703.000026,6.454799,6.567028,6.431617
703.500026,6.459186,6.571758,6.435944
704.000026,6.463290,6.576223,6.439886
704.500026,6.467769,6.581226,6.444443
705.000026,6.471877,6.585899,6.448614
705.500026,6.474963,6.589412,6.451740
706.000026,6.477157,6.591970,6.453922
706.500026,6.479451,6.594571,6.456231
707.000026,6.482380,6.598009,6.459495
707.500026,6.484955,6.600926,6.462325
708.000026,6.487081,6.603401,6.464586
708.500026,6.489178,6.605764,6.466706
709.000026,6.492361,6.609223,6.469828
709.500026,6.496748,6.614030,6.474297
710.000026,6.502353,6.619949,6.479616
710.500026,6.508157,6.626359,6.485472
711.000026,6.514035,6.632787,6.491331
711.500026,6.519875,6.639490,6.497543
712.000026,6.526513,6.646877,6.504502
712.500026,6.533133,6.654374,6.511386
713.000026,6.539077,6.661054,6.517393
713.500026,6.544192,6.667034,6.522370
714.000026,6.549055,6.672514,6.527157
714.500026,6.553719,6.677902,6.532012
715.000026,6.558634,6.683447,6.537429
715.500026,6.563243,6.688709,6.542323
716.000026,6.567461,6.693504,6.546744
716.500026,6.570913,6.697498,6.550194
717.000026,6.574079,6.701251,6.553487
717.500026,6.576981,6.704676,6.556337
718.000026,6.579222,6.707293,6.558476
718.500026,6.581261,6.709672,6.560478
719.000026,6.583228,6.711879,6.562348
719.500026,6.585355,6.714309,6.564493
720.000026,6.587529,6.716748,6.566581
720.500026,6.589665,6.719213,6.568746
721.000026,6.591882,6.721732,6.570917
721.500026,6.594170,6.724421,6.573359
722.000026,6.597744,6.728584,6.577200
722.500026,6.602730,6.734315,6.582641
723.000026,6.608818,6.741254,6.589038
723.500026,6.615207,6.748469,6.595610
724.000026,6.621244,6.755375,6.601657
724.500026,6.627103,6.762023,6.607545
725.000026,6.633432,6.769118,6.614038
725.500026,6.639783,6.776685,6.620966
726.000026,6.646300,6.784418,6.628031
726.500026,6.651068,6.790579,6.633209
727.000026,6.654646,6.795075,6.636848
727.500026,6.657845,6.799026,6.639934
728.000026,6.661383,6.803146,6.643479
728.500026,6.665745,6.808277,6.647857
729.000026,6.670100,6.813473,6.652458
729.500026,6.673734,6.817865,6.656217
730.000026,6.676072,6.820785,6.658680
730.500026,6.677472,6.822792,6.660296
731.000026,6.678934,6.824961,6.662018
731.500026,6.680795,6.827360,6.664131
732.000026,6.682768,6.829912,6.666332
732.500026,6.684946,6.832735,6.668713
733.000026,6.687441,6.835937,6.671485
733.500026,6.690157,6.839399,6.674415
734.000026,6.694173,6.844017,6.678539
734.500026,6.699698,6.850361,6.684018
735.000026,6.706760,6.858443,6.691267
735.500026,6.713694,6.866798,6.698685
736.000026,6.719734,6.874423,6.705335
736.500026,6.725367,6.881945,6.711668
737.000026,6.731654,6.890166,6.718345
737.500026,6.738444,6.898923,6.725537
738.000026,6.744758,6.906993,6.732114
738.500026,6.749762,6.913694,6.737522
739.000026,6.753765,6.919502,6.742125
739.500026,6.757552,6.925049,6.746392
740.000026,6.761372,6.930599,6.751007
740.500026,6.764873,6.935655,6.755096
741.000026,6.767911,6.940126,6.758610
741.500026,6.770350,6.943787,6.761344
742.000026,6.772494,6.947223,6.763818
742.500026,6.774799,6.950629,6.766390
743.000026,6.776989,6.953911,6.768770
743.500026,6.779213,6.956973,6.771146
744.000026,6.780910,6.959651,6.773173
744.500026,6.783205,6.962847,6.775657
745.000026,6.785583,6.966142,6.778274
745.500026,6.787046,6.968444,6.779964
746.000026,6.787294,6.969469,6.780607
746.500026,6.787063,6.969763,6.780469
747.000026,6.787621,6.970805,6.781158
747.500026,6.789418,6.973007,6.783003
748.000026,6.792312,6.976624,6.786275
748.500026,6.794823,6.980030,6.789201
749.000026,6.796470,6.982728,6.791289
749.500026,6.797789,6.985232,6.793115
750.000026,6.800236,6.989052,6.796104
750.500026,6.804753,6.995402,6.801167
751.000026,6.810621,7.003427,6.807789
751.500026,6.817844,7.013189,6.815812
752.000026,6.824701,7.022927,6.823793
752.500026,6.830387,7.032120,6.830598
753.000026,6.834681,7.040477,6.836323
753.500026,6.838819,7.049185,6.841976
754.000026,6.843914,7.059080,6.848812
754.500026,6.849294,7.069644,6.855981
755.000026,6.854000,7.079853,6.862744
755.500026,6.857451,7.089400,6.868645
756.000026,6.859606,7.097897,6.873579
756.500026,6.861552,7.106580,6.878507
757.000026,6.855848,7.120073,6.884399
757.500026,6.853420,7.127318,6.887766
758.000026,,,
758.500026,1.745452,11.159490,1.783043
759.000026,1.746071,11.152433,1.782586
759.500026,1.747826,11.142443,1.783682
760.000026,1.743833,11.129381,1.779070
760.500026,1.742068,11.120544,1.777637
761.000026,1.743908,11.115095,1.779221
761.500026,1.745003,11.110237,1.780492
762.000026,1.744864,11.107083,1.780320
762.500026,1.742897,11.103175,1.778217
763.000026,1.741513,11.101154,1.776814
763.500026,1.742032,11.100449,1.777288
764.000026,1.743460,11.100576,1.778638
764.500026,1.744702,11.101143,1.779763
765.000026,,,
