?? [s],A 1.dY [mm],B1.dY [mm],C1.dY [mm]
0.000000,0.000000,0.000000,0.000000
10.000000,0.059906,0.059434,0.058375
20.000000,0.166314,0.165316,0.162445
30.000000,0.283821,0.282323,0.278038
40.000000,0.384768,0.382946,0.377803
50.000000,0.468431,0.466314,0.460522
60.000000,0.544854,0.542473,0.536280
70.000000,0.597005,0.594603,0.587940
80.000000,0.668969,0.666496,0.659257
90.000000,0.752677,0.750208,0.741884
100.000000,0.873226,0.870741,0.862194
110.000000,0.996462,0.994140,0.985478
120.000000,1.152479,1.149973,1.141566
130.000000,1.306539,1.304030,1.295242
140.000000,1.469971,1.467405,1.458460
150.000000,1.636531,1.634216,1.625122
160.000000,1.778894,1.776705,1.767276
170.000000,1.895808,1.893667,1.883944
180.000000,1.989159,1.987602,1.976824
190.000000,2.079839,2.078902,2.067475
200.000000,2.178155,2.178253,2.165996
210.000000,2.274195,2.275143,2.262268
220.000000,2.373945,2.375776,2.361585
230.000000,2.464015,2.466503,2.451111
240.000000,2.554770,2.557535,2.541053
250.000000,2.599508,2.600891,2.585174
260.000000,2.615801,2.615611,2.600817
270.000000,2.635673,2.635564,2.620486
280.000000,2.714348,2.716954,2.699466
290.000000,2.814788,2.820237,2.800127
300.000000,2.916033,2.922925,2.901306
310.000000,3.007125,3.015248,2.992183
320.000000,3.098861,3.108722,3.083596
330.000000,3.191515,3.203301,3.176125
340.000000,3.282482,3.295730,3.266523
350.000000,3.377035,3.392010,3.360879
360.000000,3.466740,3.483644,3.450294
370.000000,3.559499,3.578816,3.543124
380.000000,3.645689,3.666791,3.629072
390.000000,3.736898,3.760064,3.719897
400.000000,3.827040,3.852310,3.809784
410.000000,3.915671,3.943473,3.898226
420.000000,3.999961,4.030328,3.982389
430.000000,4.086880,4.119845,4.069062
440.000000,4.182400,4.218207,4.164304
450.000000,4.277267,4.316048,4.259242
460.000000,4.365819,4.407492,4.347643
470.000000,4.452220,4.496751,4.433905
480.000000,4.534384,4.580735,4.514702
490.000000,4.624080,4.672892,4.603355
500.000000,4.715389,4.766794,4.693672
510.000000,4.802030,4.856698,4.780106
520.000000,4.889627,4.947820,4.867610
530.000000,4.975902,5.037597,4.953584
540.000000,5.061811,5.127249,5.039311
550.000000,5.145305,5.214219,5.122401
560.000000,5.230539,5.303266,5.207300
570.000000,5.325479,5.402764,5.301966
580.000000,5.412876,5.494657,5.389049
590.000000,5.473463,5.558425,5.449349
591.000014,5.504530,5.591100,5.480167
592.000014,5.509805,5.596736,5.485343
593.000014,5.515757,5.603037,5.491263
594.000014,5.519467,5.607122,5.494926
595.000014,5.530756,5.618771,5.506257
596.000014,5.542041,5.630707,5.517375
597.000014,5.557732,5.646946,5.532897
598.000014,5.569783,5.659956,5.544850
599.000014,5.581012,5.671662,5.555874
600.000014,5.592081,5.683658,5.567113
601.000014,5.598632,5.690640,5.573675
602.000014,5.605393,5.698158,5.580696
603.000014,5.608953,5.702017,5.584154
604.000014,5.612842,5.706186,5.587939
605.000014,5.617888,5.711421,5.592825
606.000014,5.623668,5.717442,5.598471
607.000014,5.635952,5.730240,5.610506
608.000014,5.649576,5.744687,5.624157
609.000014,5.663752,5.759592,5.638103
610.000014,5.675620,5.772286,5.650013
611.000014,5.683541,5.780842,5.657766
612.000014,5.690636,5.788653,5.665042
613.000014,5.695866,5.794490,5.670409
614.000014,5.701395,5.800401,5.675882
615.000014,5.708266,5.807767,5.682650
616.000014,5.717417,5.817188,5.691373
617.000014,5.729234,5.829977,5.703351
618.000014,5.740023,5.841327,5.713999
619.000014,5.749239,5.851159,5.723154
620.000014,5.756475,5.858745,5.730203
621.000014,5.763836,5.866862,5.737485
622.000014,5.771048,5.874933,5.744745
623.000014,5.779329,5.884014,5.753059
624.000014,5.787006,5.892254,5.760743
625.000014,5.794269,5.900107,5.767915
626.000014,5.801874,5.908235,5.775324
627.000014,5.809862,5.917116,5.783441
628.000014,5.817833,5.925928,5.791535
629.000014,5.827195,5.935898,5.800911
630.000014,5.837484,5.946339,5.810494
631.000014,5.848674,5.958039,5.821429
632.000014,5.858746,5.968775,5.831293
633.000014,5.868628,5.979472,5.841303
634.000014,5.878161,5.989469,5.850477
635.000014,5.887857,6.000002,5.859910
636.000014,5.895060,6.008276,5.867058
637.000014,5.901890,6.016117,5.873987
638.000014,5.906757,6.021363,5.878795
639.000014,5.911363,6.026290,5.883256
640.000014,5.919393,6.034851,5.890876
641.000014,5.929339,6.045717,5.900575
642.000014,5.943197,6.060693,5.914438
643.000014,5.955325,6.073745,5.926434
644.000014,5.965859,6.085409,5.936875
645.000014,5.975763,6.096177,5.946394
646.000014,5.982636,6.104125,5.953366
647.000014,5.989536,6.111788,5.960304
648.000014,5.993449,6.116287,5.964297
649.000014,5.997656,6.120830,5.968215
650.000014,6.001367,6.124905,5.971433
651.000014,6.004838,6.129053,5.974725
652.000014,6.011073,6.135859,5.980769
653.000014,6.021121,6.146722,5.990920
654.000014,6.035897,6.162491,6.005346
655.000014,6.050448,6.178540,6.019863
656.000014,6.063917,6.193604,6.033224
657.000014,6.074659,6.205729,6.043736
658.000014,6.085057,6.217249,6.053567
659.000014,6.092462,6.226052,6.060606
660.000014,6.099370,6.234116,6.067385
661.000014,6.103681,6.239245,6.071445
662.000014,6.108323,6.244383,6.075909
663.000014,6.112831,6.249700,6.080146
664.000014,6.120664,6.258785,6.087939
665.000014,6.132820,6.272355,6.099966
666.000014,6.145255,6.286241,6.112245
667.000014,6.157114,6.299601,6.123995
668.000014,6.165209,6.308716,6.131433
669.000014,6.172828,6.317408,6.138639
670.000014,6.177707,6.323230,6.143163
671.000014,6.181696,6.328325,6.147068
672.000014,6.186540,6.333989,6.151513
673.000014,6.193557,6.342226,6.158416
674.000014,6.204272,6.354226,6.168835
675.000014,6.217497,6.369249,6.182003
676.000014,6.232471,6.385984,6.196437
677.000014,6.245036,6.400591,6.208501
678.000014,6.255999,6.413728,6.218772
679.000014,6.263579,6.423432,6.225931
680.000014,6.271607,6.433037,6.233499
681.000014,6.275757,6.438328,6.237265
682.000014,6.281160,6.444649,6.242202
683.000014,6.284400,6.448965,6.244898
684.000014,6.289011,6.454783,6.249329
685.000014,6.294545,6.461640,6.254623
686.000014,6.302638,6.471294,6.262523
687.000014,6.315010,6.485310,6.274576
688.000014,6.326228,6.498188,6.285337
689.000014,6.337888,6.511784,6.296623
690.000014,6.346151,6.521944,6.304297
691.000014,6.353304,6.531147,6.311097
692.000014,6.358273,6.537931,6.315704
693.000014,6.363613,6.544976,6.320622
694.000014,6.369342,6.552233,6.325858
695.000014,6.374906,6.559087,6.330957
696.000014,6.381054,6.566922,6.336790
697.000014,6.389860,6.577754,6.345224
698.000014,6.401666,6.591997,6.356726
699.000014,6.413685,6.606606,6.368302
700.000014,6.423671,6.619132,6.377731
701.000014,6.431549,6.629646,6.384869
702.000014,6.437847,6.637963,6.390216
703.000014,6.442818,6.645058,6.394614
704.000014,6.447413,6.651370,6.398745
705.000014,6.451588,6.657506,6.402739
706.000014,6.457669,6.665378,6.408363
707.000014,6.467489,6.677675,6.417777
708.000014,6.480191,6.693427,6.430014
709.000014,6.494042,6.710628,6.443370
710.000014,6.505299,6.725613,6.454057
711.000014,6.514366,6.738587,6.462563
712.000014,6.522169,6.750197,6.469635
713.000014,6.527922,6.758952,6.474283
714.000014,6.532991,6.766395,6.478501
715.000014,6.536053,6.771603,6.480943
716.000014,6.539216,6.776715,6.483850
717.000014,6.542819,6.782110,6.487097
718.000014,6.547944,6.789077,6.491943
719.000014,6.554717,6.798239,6.498562
720.000014,6.565471,6.812068,6.508896
721.000014,6.577725,6.827753,6.520582
722.000014,6.590576,6.844416,6.532775
723.000014,6.600120,6.858091,6.541728
724.000014,6.608238,6.870366,6.549187
725.000014,6.614415,6.880529,6.554424
726.000014,6.619889,6.889248,6.558927
727.000014,6.623074,6.895429,6.561145
728.000014,6.626006,6.900997,6.563663
729.000014,6.629441,6.906984,6.566677
730.000014,6.633956,6.914239,6.571072
731.000014,6.641964,6.924831,6.578184
732.000014,6.652638,6.939192,6.588192
733.000014,6.664939,6.955749,6.599577
734.000014,6.677325,6.973542,6.611263
735.000014,6.685873,6.987289,6.618880
736.000014,6.694195,7.000593,6.625956
737.000014,6.699893,7.010614,6.630528
738.000014,6.705285,7.019925,6.634694
739.000014,6.709398,7.027276,6.637655
740.000014,6.711637,7.032572,6.638801
741.000014,6.715644,7.039122,6.641648
742.000014,6.720484,7.046933,6.645536
743.000014,6.728029,7.058043,6.651837
744.000014,6.738031,7.072238,6.660484
745.000014,6.749840,7.089226,6.670647
746.000014,6.761249,7.106060,6.680090
747.000014,6.770565,7.121185,6.686999
748.000014,6.777790,7.133826,6.691486
749.000014,6.783383,7.144787,6.694323
750.000014,6.788001,7.154366,6.696182
751.000014,6.791507,7.162601,6.697177
752.000014,6.794581,7.169430,6.697705
753.000014,6.797076,7.175602,6.697639
754.000014,6.801376,7.183341,6.698404
755.000014,6.808862,7.195721,6.701561
756.000014,6.818100,7.211331,6.703780
757.000014,6.829176,7.232093,6.701081
758.000014,5.260306,8.274875,5.102925
759.000014,3.697846,9.322639,3.515519
760.000014,2.127668,10.362363,1.928859
761.000014,2.125647,10.377056,1.928046
762.000014,2.113697,10.386142,1.916628
763.000014,2.105217,10.391606,1.908588
