?? [s],A 1.dY [mm],A 2.dY [mm],B2.dY [mm],B 1.dY [mm],C2.dY [mm],C 1.dY [mm]
0.000000,0.000000,0.000000,0.000000,0.000000,0.000000,0.000000
10.000000,0.000280,0.000232,0.000318,0.000180,0.000196,0.000237
20.000000,0.000446,0.000441,0.000377,0.000366,0.000371,0.000346
30.000000,0.001073,0.000995,0.000876,0.000741,0.000931,0.001048
40.000000,0.017855,0.017885,0.017351,0.017263,0.017469,0.017537
50.000000,0.114044,0.113936,0.113319,0.113204,0.113051,0.113116
60.000000,0.243728,0.243854,0.242253,0.242382,0.242060,0.242292
70.000000,0.390323,0.390500,0.388159,0.388715,0.388234,0.388625
80.000000,0.484047,0.484308,0.481158,0.481841,0.481614,0.482227
90.000000,0.584369,0.584291,0.581379,0.581803,0.581396,0.582054
100.000000,0.693819,0.693611,0.690586,0.690859,0.690173,0.690875
110.000000,0.823835,0.823750,0.820754,0.820855,0.819241,0.819932
120.000000,0.976100,0.976056,0.972983,0.973284,0.970755,0.971446
130.000000,1.137515,1.137486,1.134766,1.135148,1.131609,1.132459
140.000000,1.303340,1.303116,1.300424,1.301026,1.297322,1.298266
150.000000,1.462663,1.462591,1.459385,1.460155,1.457054,1.457893
160.000000,1.614756,1.614723,1.610777,1.611309,1.609453,1.610155
170.000000,1.740789,1.741013,1.735936,1.736707,1.735578,1.736266
180.000000,1.845606,1.845836,1.839966,1.840786,1.839685,1.840511
190.000000,1.937383,1.937497,1.930678,1.932060,1.930250,1.931410
200.000000,2.038062,2.037754,2.030415,2.031768,2.029595,2.030819
210.000000,2.138137,2.137662,2.129307,2.130532,2.127984,2.129486
220.000000,2.244585,2.244093,2.234625,2.235816,2.232734,2.234361
230.000000,2.354153,2.353704,2.343346,2.344795,2.341053,2.342926
240.000000,2.462822,2.462328,2.450561,2.452483,2.448352,2.450388
250.000000,2.561165,2.560578,2.547439,2.549478,2.545192,2.547430
260.000000,2.657534,2.656973,2.641821,2.644004,2.639305,2.641796
270.000000,2.753410,2.752817,2.735777,2.738043,2.732732,2.735558
280.000000,2.845881,2.845170,2.825908,2.828824,2.822731,2.825717
290.000000,2.934535,2.933878,2.912087,2.915607,2.908780,2.912118
300.000000,3.025666,3.024894,3.000611,3.004808,2.997107,3.000688
310.000000,3.121343,3.120432,3.093590,3.098098,3.089630,3.093649
320.000000,3.218418,3.217378,3.187750,3.192443,3.183351,3.187816
330.000000,3.305836,3.304758,3.272231,3.277427,3.267394,3.272343
340.000000,3.392818,3.391729,3.355991,3.361736,3.351064,3.356462
350.000000,3.477716,3.476376,3.437615,3.443728,3.432306,3.438115
360.000000,3.565993,3.564430,3.522304,3.528774,3.516782,3.522994
370.000000,3.657767,3.656168,3.610399,3.616893,3.604531,3.611138
380.000000,3.749083,3.747509,3.697783,3.704679,3.691807,3.698762
390.000000,3.807050,3.805953,3.754652,3.761827,3.747930,3.754963
400.000000,3.854329,3.853483,3.800910,3.808235,3.793306,3.800541
410.000000,3.909738,3.909080,3.854453,3.862237,3.846381,3.853811
420.000000,3.999585,3.998525,3.939361,3.947539,3.931318,3.939398
430.000000,4.091052,4.089776,4.025898,4.035119,4.018008,4.026635
440.000000,4.183639,4.182173,4.113629,4.123436,4.105361,4.114731
450.000000,4.273989,4.272518,4.199173,4.209742,4.190712,4.200639
460.000000,4.365164,4.363556,4.285299,4.296264,4.276529,4.286948
470.000000,4.420327,4.418552,4.337295,4.348495,4.328387,4.339038
471.000014,4.451583,4.449592,4.366685,4.377822,4.357649,4.368444
472.000014,4.463736,4.461663,4.378203,4.389210,4.369092,4.379869
473.000014,4.477157,4.475117,4.390883,4.401990,4.381765,4.392581
474.000014,4.490154,4.488072,4.403005,4.414317,4.393917,4.404747
475.000014,4.502176,4.500107,4.414223,4.425594,4.405183,4.416180
476.000014,4.512275,4.510131,4.423364,4.435145,4.414548,4.425532
477.000014,4.520731,4.518725,4.431267,4.443119,4.422416,4.433422
478.000014,4.527730,4.525785,4.438018,4.450010,4.428916,4.439925
479.000014,4.533361,4.531403,4.443692,4.455371,4.434221,4.445308
480.000014,4.538409,4.536227,4.448534,4.460342,4.438964,4.450095
481.000014,4.543630,4.541412,4.453546,4.465009,4.443932,4.455094
482.000014,4.550369,4.548271,4.459602,4.471199,4.450116,4.461364
483.000014,4.560980,4.559150,4.469513,4.480973,4.460117,4.471426
484.000014,4.574086,4.572182,4.481601,4.493771,4.472264,4.483654
485.000014,4.589298,4.587429,4.495875,4.507870,4.486486,4.497875
486.000014,4.603525,4.601439,4.509309,4.521145,4.499694,4.511159
487.000014,4.616189,4.613984,4.521001,4.532740,4.511508,4.523023
488.000014,4.627417,4.625084,4.531663,4.543425,4.522039,4.533676
489.000014,4.636222,4.634159,4.539827,4.551834,4.530207,4.541959
490.000014,4.643479,4.641520,4.546543,4.558679,4.536919,4.548679
491.000014,4.649451,4.647436,4.551987,4.564331,4.542463,4.554189
492.000014,4.654863,4.652601,4.557026,4.569565,4.547509,4.559220
493.000014,4.660455,4.658212,4.562440,4.574752,4.552727,4.564617
494.000014,4.666114,4.664074,4.567992,4.580427,4.558152,4.570169
495.000014,4.672135,4.670216,4.573491,4.585794,4.563570,4.575730
496.000014,4.679530,4.677557,4.580158,4.592518,4.570309,4.582456
497.000014,4.688285,4.685948,4.588277,4.600434,4.578247,4.590448
498.000014,4.700391,4.697929,4.599787,4.611916,4.589631,4.601825
499.000014,4.714552,4.712190,4.613107,4.625229,4.602857,4.615154
500.000014,4.728719,4.726440,4.626226,4.638493,4.615872,4.628269
501.000014,4.742481,4.740210,4.638987,4.651365,4.628560,4.640986
502.000014,4.754423,4.752023,4.650179,4.662907,4.639574,4.652057
503.000014,4.765367,4.762860,4.660163,4.673065,4.649643,4.662161
504.000014,4.773657,4.770972,4.667787,4.680857,4.657245,4.669779
505.000014,4.780629,4.777782,4.674431,4.687359,4.663734,4.676288
506.000014,4.786037,4.783015,4.679608,4.692664,4.668696,4.681331
507.000014,4.791130,4.788114,4.684420,4.697462,4.673403,4.686149
508.000014,4.795812,4.792770,4.688561,4.701680,4.677579,4.690293
509.000014,4.801238,4.798436,4.693591,4.706569,4.682643,4.695390
510.000014,4.807485,4.804682,4.699161,4.712178,4.688340,4.701157
511.000014,4.814696,4.811937,4.705884,4.718730,4.695035,4.707914
512.000014,4.824615,4.821847,4.715328,4.728323,4.704349,4.717181
513.000014,4.836114,4.833201,4.725913,4.739079,4.714795,4.727770
514.000014,4.849507,4.846430,4.738296,4.751702,4.727022,4.740088
515.000014,4.861890,4.858604,4.749578,4.763187,4.738365,4.751565
516.000014,4.872598,4.869328,4.759759,4.773341,4.748348,4.761468
517.000014,4.881625,4.878473,4.768190,4.781774,4.756707,4.769831
518.000014,4.888985,4.885876,4.774967,4.788663,4.763306,4.776511
519.000014,4.894644,4.891574,4.780178,4.793803,4.768470,4.781789
520.000014,4.899963,4.896674,4.784899,4.798470,4.773150,4.786535
521.000014,4.906292,4.902906,4.790703,4.804068,4.778972,4.792220
522.000014,4.916363,4.913041,4.799981,4.813432,4.788243,4.801560
523.000014,4.929289,4.925974,4.812045,4.825980,4.800214,4.813709
524.000014,4.943413,4.940104,4.825092,4.839235,4.813149,4.826863
525.000014,4.957156,4.953693,4.837681,4.852061,4.825722,4.839481
526.000014,4.968565,4.965205,4.848428,4.862846,4.836182,4.850042
527.000014,4.978823,4.975300,4.857802,4.872435,4.845449,4.859352
528.000014,4.987450,4.983976,4.865877,4.880352,4.853264,4.867195
529.000014,4.995052,4.991510,4.872551,4.886798,4.859994,4.873930
530.000014,5.001315,4.998004,4.878374,4.892451,4.865737,4.879591
531.000014,5.006369,5.002924,4.882900,4.897349,4.870148,4.884094
532.000014,5.011079,5.007638,4.887294,4.901973,4.874436,4.888318
533.000014,5.016808,5.013211,4.892479,4.907416,4.879501,4.893585
534.000014,5.027405,5.023893,4.902240,4.916943,4.889260,4.903374
535.000014,5.041244,5.037670,4.914958,4.929650,4.901981,4.916150
536.000014,5.056850,5.053310,4.929398,4.943972,4.916208,4.930511
537.000014,5.070259,5.066663,4.941850,4.956297,4.928362,4.942676
538.000014,5.080747,5.077293,4.951371,4.966198,4.937742,4.952157
539.000014,5.089061,5.085568,4.958938,4.973790,4.945226,4.959546
540.000014,5.095976,5.092317,4.965035,4.980428,4.951355,4.965721
541.000014,5.102330,5.098563,4.970885,4.986310,4.957013,4.971447
542.000014,5.106671,5.102815,4.974662,4.990328,4.960659,4.975318
543.000014,5.109638,5.105766,4.977280,4.992999,4.963199,4.977878
544.000014,5.113472,5.109527,4.980916,4.996409,4.966628,4.981383
545.000014,5.119555,5.115774,4.986624,5.001783,4.972225,4.986858
546.000014,5.128325,5.124681,4.994658,5.009744,4.980212,4.994899
547.000014,5.140162,5.136330,5.005224,5.020521,4.990808,5.005480
548.000014,5.154420,5.150527,5.018259,5.033652,5.003667,5.018423
549.000014,5.169361,5.165300,5.031815,5.047338,5.017010,5.031777
550.000014,5.182788,5.178725,5.044039,5.059554,5.029015,5.043808
551.000014,5.193543,5.189479,5.053683,5.069557,5.038512,5.053374
552.000014,5.202838,5.198945,5.062197,5.078025,5.046717,5.061782
553.000014,5.210814,5.207001,5.069300,5.085138,5.053691,5.068843
554.000014,5.216952,5.213105,5.074680,5.090523,5.058971,5.074092
555.000014,5.221219,5.217207,5.078411,5.094237,5.062604,5.077668
556.000014,5.225285,5.221186,5.082122,5.098050,5.066155,5.081217
557.000014,5.231658,5.227437,5.088065,5.104265,5.071836,5.087003
558.000014,5.240302,5.236102,5.095868,5.112423,5.079439,5.094698
559.000014,5.252638,5.248510,5.107084,5.123777,5.090414,5.105796
560.000014,5.266909,5.262739,5.119680,5.136414,5.103127,5.118475
561.000014,5.281804,5.277513,5.133042,5.150014,5.116270,5.131675
562.000014,5.295005,5.290565,5.144693,5.161658,5.127715,5.143193
563.000014,5.306674,5.302060,5.155320,5.172251,5.137667,5.153227
564.000014,5.317283,5.312538,5.164810,5.181606,5.146901,5.162392
565.000014,5.326013,5.321318,5.172732,5.189590,5.154480,5.169963
566.000014,5.332692,5.328160,5.178642,5.195782,5.160288,5.175864
567.000014,5.338357,5.333963,5.183730,5.200897,5.165147,5.180903
568.000014,5.343435,5.338899,5.188245,5.205429,5.169362,5.185092
569.000014,5.349242,5.344696,5.193387,5.210263,5.174287,5.190064
570.000014,5.357633,5.353193,5.200882,5.217674,5.181533,5.197273
571.000014,5.368849,5.364554,5.210854,5.228012,5.191397,5.207326
572.000014,5.382099,5.377719,5.222581,5.240170,5.202842,5.218827
573.000014,5.394490,5.389937,5.233535,5.251292,5.213429,5.229516
574.000014,5.405751,5.401095,5.243318,5.261046,5.222798,5.238900
575.000014,5.415291,5.410638,5.251670,5.269140,5.230624,5.246829
576.000014,5.423077,5.418273,5.258225,5.275791,5.236741,5.253102
577.000014,5.430643,5.425858,5.264911,5.282339,5.242931,5.259329
578.000014,5.438606,5.433808,5.271960,5.289390,5.249644,5.265991
579.000014,5.446344,5.441639,5.278807,5.296192,5.256227,5.272482
580.000014,5.454063,5.449267,5.285370,5.302843,5.262728,5.278893
581.000014,5.460971,5.456098,5.291202,5.308963,5.268278,5.284533
582.000014,5.468540,5.463465,5.297769,5.315849,5.274434,5.290763
583.000014,5.476509,5.471276,5.304809,5.322904,5.280891,5.297427
584.000014,5.486267,5.480854,5.313275,5.331319,5.289052,5.305564
585.000014,5.498410,5.493185,5.323902,5.342171,5.299302,5.315808
586.000014,5.511841,5.506739,5.335480,5.354138,5.310501,5.326957
587.000014,5.524743,5.519700,5.346675,5.365129,5.320989,5.337575
588.000014,5.536241,5.531040,5.356461,5.374533,5.330214,5.346858
589.000014,5.545239,5.539909,5.364099,5.381902,5.337299,5.353982
590.000014,5.552023,5.546594,5.369692,5.387644,5.342588,5.359265
590.500026,5.556126,5.550796,5.372905,5.391090,5.345727,5.362414
591.000026,5.558939,5.553672,5.375219,5.393597,5.347828,5.364595
591.500026,5.561666,5.556447,5.377632,5.396327,5.350026,5.366738
592.000026,5.564272,5.559041,5.380105,5.398866,5.351976,5.368691
592.500026,5.566645,5.561298,5.382198,5.400789,5.353682,5.370403
593.000026,5.569344,5.564181,5.384541,5.403066,5.355858,5.372536
593.500026,5.572927,5.567702,5.387502,5.406021,5.358706,5.375455
594.000026,5.577937,5.572843,5.391865,5.410273,5.363071,5.379713
594.500026,5.584168,5.578930,5.397287,5.415443,5.368274,5.385057
595.000026,5.590608,5.585299,5.402847,5.421049,5.373682,5.390484
595.500026,5.596412,5.591017,5.407602,5.425877,5.378147,5.395082
596.000026,5.602229,5.596809,5.412425,5.431051,5.382521,5.399383
596.500026,5.609382,5.604019,5.418366,5.436885,5.388047,5.404872
597.000026,5.618193,5.612855,5.425978,5.444582,5.395214,5.412156
597.500026,5.626649,5.621192,5.433211,5.451461,5.402098,5.419147
598.000026,5.633634,5.628006,5.439121,5.457259,5.407519,5.424561
598.500026,5.638823,5.633105,5.443250,5.461666,5.411200,5.428212
599.000026,5.643693,5.638039,5.447028,5.465817,5.414600,5.431693
599.500026,5.648884,5.643280,5.451286,5.470097,5.418356,5.435588
600.000026,5.654359,5.648919,5.455925,5.474569,5.422559,5.439753
600.500026,5.659911,5.654640,5.460672,5.479002,5.426821,5.443965
601.000026,5.664916,5.659532,5.464867,5.483392,5.430658,5.447723
601.500026,5.668938,5.663483,5.468078,5.486588,5.433502,5.450606
602.000026,5.672087,5.666469,5.470357,5.488967,5.435545,5.452709
602.500026,5.674681,5.669142,5.472291,5.490652,5.437219,5.454451
603.000026,5.677908,5.672139,5.474854,5.493060,5.439543,5.456800
603.500026,5.681154,5.675410,5.477631,5.495786,5.442176,5.459379
604.000026,5.684186,5.678373,5.480278,5.498596,5.444443,5.461760
604.500026,5.686185,5.680388,5.481609,5.500105,5.445659,5.462989
605.000026,5.688056,5.682147,5.482775,5.501536,5.446613,5.464013
605.500026,5.690421,5.684593,5.484289,5.503056,5.448135,5.465593
606.000026,5.695031,5.689374,5.488303,5.507151,5.451936,5.469402
606.500026,5.701480,5.695904,5.494021,5.512863,5.457208,5.474876
607.000026,5.708633,5.703134,5.500213,5.519047,5.463138,5.480736
607.500026,5.715100,5.709550,5.505616,5.524239,5.468112,5.485777
608.000026,5.719977,5.714199,5.509476,5.528015,5.471708,5.489205
608.500026,5.724996,5.719207,5.513391,5.532059,5.475247,5.492725
609.000026,5.730743,5.724968,5.517978,5.536782,5.479405,5.496852
609.500026,5.737813,5.732081,5.523779,5.542738,5.484657,5.502099
610.000026,5.744964,5.739056,5.529742,5.548713,5.489921,5.507418
610.500026,5.750819,5.744852,5.534491,5.553491,5.493983,5.511511
611.000026,5.755076,5.749109,5.537557,5.556618,5.496521,5.514182
611.500026,5.758691,5.752786,5.540093,5.559286,5.498654,5.516256
612.000026,5.762615,5.756713,5.542991,5.562309,5.501167,5.518774
612.500026,5.767287,5.761519,5.546808,5.566125,5.504524,5.522110
613.000026,5.771692,5.766006,5.550263,5.569484,5.507593,5.525290
613.500026,5.775255,5.769506,5.552868,5.572129,5.509888,5.527610
614.000026,5.778462,5.772640,5.555071,5.574303,5.511818,5.529587
614.500026,5.781956,5.776069,5.557766,5.576920,5.514173,5.531911
615.000026,5.787086,5.781258,5.561922,5.580806,5.517941,5.535652
615.500026,5.793440,5.787549,5.567140,5.586244,5.522673,5.540316
616.000026,5.800668,5.794782,5.573077,5.592407,5.527955,5.545597
616.500026,5.807668,5.801843,5.578520,5.598035,5.532644,5.550403
617.000026,5.814796,5.809023,5.583955,5.603347,5.537159,5.554989
617.500026,5.821845,5.816001,5.589145,5.608240,5.541357,5.559158
618.000026,5.829473,5.823558,5.594974,5.614109,5.546023,5.563739
618.500026,5.837117,5.831283,5.600639,5.619869,5.550685,5.568295
619.000026,5.845202,5.839484,5.606546,5.626000,5.555579,5.573077
619.500026,5.856212,5.850362,5.612837,5.632913,5.553844,5.571356
620.000026,5.866246,5.860183,5.618514,5.638359,5.550421,5.567811
620.500026,5.875744,5.869435,5.623578,5.643508,5.546119,5.563525
621.000026,5.882245,5.875867,5.627757,5.647493,5.548299,5.565497
621.500026,5.889123,5.882800,5.631723,5.652011,5.551255,5.568465
622.000026,5.895462,5.889185,5.635326,5.655937,5.554012,5.571253
622.500026,5.899992,5.893837,5.637644,5.658263,5.555129,5.572375
623.000026,5.903209,5.897228,5.639678,5.659732,5.555444,5.572617
623.500026,5.905738,5.899801,5.641010,5.660484,5.555162,5.572253
624.000026,5.908469,5.902512,5.642741,5.661752,5.555414,5.572507
624.500026,5.911212,5.905015,5.644189,5.663126,5.555911,5.572925
625.000026,5.914187,5.907933,5.645729,5.664899,5.556690,5.573644
625.500026,5.917389,5.911154,5.647460,5.666665,5.557563,5.574536
626.000026,5.921557,5.915393,5.649986,5.669393,5.559108,5.576153
626.500026,5.926287,5.920212,5.653333,5.672741,5.561010,5.578154
627.000026,5.932130,5.926000,5.656936,5.676947,5.563254,5.580474
627.500026,5.939652,5.933446,5.662049,5.682376,5.566043,5.583481
628.000026,5.950259,5.943930,5.669023,5.689393,5.569548,5.586869
628.500026,5.963603,5.957301,5.677442,5.697157,5.572737,5.589927
629.000026,5.978027,5.971843,5.684857,5.704896,5.574886,5.591771
629.500026,5.991379,5.985317,5.690658,5.711282,5.575428,5.592273
630.000026,6.003636,5.997718,5.695830,5.716852,5.575190,5.591779
630.500026,6.015063,6.009067,5.700561,5.720988,5.573828,5.590442
631.000026,6.027025,6.021034,5.705978,5.726038,5.572917,5.589315
631.500026,6.038904,6.032831,5.711086,5.731307,5.572024,5.588287
632.000026,6.049834,6.043968,5.715264,5.735596,5.570064,5.585852
632.500026,6.059066,6.053326,5.717336,5.738051,5.566161,5.581641
633.000026,6.067388,6.061571,5.718932,5.739287,5.561040,5.576275
633.500026,6.076417,6.070529,5.721163,5.741401,5.555979,5.571002
634.000026,6.087566,6.081566,5.724269,5.744292,5.549097,5.563772
634.500026,7.008681,7.001031,4.359825,4.372710,5.545494,5.559968
635.000026,7.954762,7.948536,3.002519,3.009267,,
635.500026,8.904907,8.900346,1.640396,1.640791,1.677707,1.680053
636.000026,8.958023,8.956992,1.646218,1.647108,1.676706,1.679036
636.500026,8.992399,8.991570,1.641596,1.642731,1.672031,1.674281
637.000026,9.026751,9.026259,1.639367,1.640378,1.669236,1.671406
637.500026,9.053799,9.053426,1.633543,1.635630,1.664046,1.666279
638.000026,9.078088,9.077954,1.627690,1.629799,1.658292,1.660561
638.500026,9.097910,9.097638,1.621480,1.623299,1.651852,1.654248
639.000026,9.110061,9.109719,1.616700,1.617806,1.646450,1.649014
639.500026,9.115710,9.115400,1.613806,1.614749,1.643410,1.645961
640.000026,9.117393,9.116983,1.612662,1.613536,1.642138,1.644712
640.500026,9.118463,9.118089,1.612138,1.613062,1.641851,1.644083
641.000026,9.119927,9.119455,1.612382,1.613161,1.642229,1.644377
641.500026,9.121209,9.120849,1.613109,1.613942,1.643093,1.645271
642.000026,9.121726,9.121317,1.613451,1.614401,1.643380,1.645678
642.500026,9.120387,9.120043,1.612727,1.613630,1.642356,1.644766
643.000026,9.118489,9.118001,1.610997,1.612194,1.640950,1.643247
643.500026,9.117186,9.116688,1.610269,1.611283,1.640338,1.642573
644.000026,9.118625,9.118099,1.612423,1.613445,1.642611,1.644862
644.500026,9.118602,9.118227,1.613775,1.614690,1.643950,1.646223
645.000026,9.116400,9.116130,1.613121,1.614440,1.643428,1.645763
645.500026,9.113564,9.113333,1.611055,1.612565,1.641529,1.643834
646.000026,,,,,,
646.500026,,,,,,
647.000026,,,,,,
647.500026,,,,,,
648.000026,,,,,,
648.500026,,,,,,
649.000026,,,,,,
649.500026,,,,,,
650.000026,,,,,,
650.500026,,,,,,
651.000026,,,,,,
651.500026,,,,,,
652.000026,,,,,,
652.500026,,,,,,
653.000026,,,,,,
653.500026,,,,,,
654.000026,,,,,,
654.500026,,,,,,
655.000026,,,,,,
655.500026,,,,,,
656.000026,,,,,,
656.500026,,,,,,
657.000026,,,,,,
657.500026,,,,,,
658.000026,,,,,,
658.500026,,,,,,
659.000026,,,,,,
659.500026,,,,,,
660.000026,,,,,,
660.500026,,,,,,
661.000026,,,,,,
661.500026,,,,,,
662.000026,,,,,,
662.500026,,,,,,
663.000026,,,,,,
663.500026,,,,,,
664.000026,,,,,,
664.500026,,,,,,
665.000026,,,,,,
665.500026,,,,,,
666.000026,,,,,,
666.500026,,,,,,
667.000026,,,,,,
667.500026,,,,,,
668.000026,,,,,,
668.500026,,,,,,
669.000026,,,,,,
