?? [s],A 1.dY [mm],B1.dY [mm],C1.dY [mm]
0.000000,0.000000,0.000000,0.000000
10.000000,-0.003179,-0.003271,-0.003256
20.000000,0.002254,0.002374,0.001925
30.000000,0.073587,0.073682,0.072579
40.000000,0.179652,0.180069,0.178234
50.000000,0.299327,0.300124,0.297567
60.000000,0.387136,0.388493,0.385265
70.000000,0.494562,0.495786,0.492124
80.000000,0.639482,0.640760,0.637140
90.000000,0.802738,0.803963,0.800555
100.000000,0.972963,0.974749,0.971366
110.000000,1.135258,1.137118,1.133745
120.000000,1.281499,1.283555,1.280124
130.000000,1.406150,1.408259,1.404778
140.000000,1.513706,1.516214,1.512477
150.000000,1.618203,1.621575,1.617508
160.000000,1.722584,1.726481,1.722021
170.000000,1.824901,1.829456,1.824368
180.000000,1.927665,1.932313,1.926441
190.000000,2.030249,2.035882,2.029078
200.000000,2.131252,2.137464,2.129805
210.000000,2.231921,2.239213,2.230703
220.000000,2.332625,2.340923,2.331389
230.000000,2.435619,2.445700,2.434996
240.000000,2.534531,2.546017,2.534060
250.000000,2.630843,2.643555,2.630405
260.000000,2.727357,2.740986,2.726557
270.000000,2.828859,2.844689,2.828877
280.000000,2.924457,2.941789,2.924471
290.000000,3.017942,3.036716,3.017996
300.000000,3.112527,3.131805,3.111511
310.000000,3.208684,3.229438,3.207360
320.000000,3.302601,3.325490,3.301494
330.000000,3.393482,3.418732,3.393208
340.000000,3.451861,3.478985,3.452863
350.000000,3.497243,3.525988,3.498942
360.000000,3.550774,3.582056,3.553253
370.000000,3.631705,3.665652,3.634227
380.000000,3.729050,3.765549,3.731545
390.000000,3.816495,3.855412,3.819043
400.000000,3.907698,3.949011,3.910170
410.000000,3.992385,4.036453,3.995119
420.000000,4.079503,4.125420,4.081706
430.000000,4.169162,4.217668,4.171355
440.000000,4.262164,4.313280,4.264353
450.000000,4.349658,4.403637,4.351991
460.000000,4.434095,4.491158,4.436651
470.000000,4.516804,4.577361,4.520002
480.000000,4.609656,4.673287,4.612710
490.000000,4.700646,4.767918,4.704225
500.000000,4.793066,4.863940,4.796865
510.000000,4.875965,4.950233,4.879823
520.000000,4.962949,5.041183,4.967149
530.000000,5.046431,5.128501,5.050715
540.000000,5.135415,5.221227,5.139248
550.000000,5.223122,5.313088,5.226291
560.000000,5.312351,5.405793,5.313884
570.000000,5.393899,5.492384,5.394846
580.000000,5.480668,5.584132,5.479764
590.000000,5.540921,5.648537,5.538751
591.000014,5.579245,5.689742,5.576402
592.000014,5.584007,5.695006,5.581017
593.000014,5.588905,5.700517,5.585912
594.000014,5.594031,5.705854,5.590568
595.000014,5.600408,5.712520,5.596475
596.000014,5.609661,5.722725,5.605911
597.000014,5.620327,5.734265,5.616562
598.000014,5.633751,5.749471,5.630777
599.000014,5.644681,5.762060,5.642202
600.000014,5.655793,5.774040,5.653133
601.000014,5.664584,5.782868,5.660669
602.000014,5.672541,5.790392,5.666971
603.000014,5.678077,5.796613,5.671978
604.000014,5.682859,5.801839,5.676395
605.000014,5.687246,5.807153,5.680765
606.000014,5.695158,5.815821,5.688485
607.000014,5.705457,5.827230,5.698616
608.000014,5.720047,5.842817,5.712967
609.000014,5.732471,5.856330,5.724830
610.000014,5.744295,5.870057,5.736815
611.000014,5.752392,5.879812,5.744705
612.000014,5.762337,5.890919,5.754054
613.000014,5.769511,5.898406,5.759952
614.000014,5.776811,5.906148,5.766178
615.000014,5.780840,5.910989,5.770001
616.000014,5.784506,5.915311,5.773288
617.000014,5.789172,5.920670,5.777740
618.000014,5.794692,5.926872,5.782588
619.000014,5.804239,5.937277,5.791616
620.000014,5.814708,5.948639,5.801474
621.000014,5.826957,5.962284,5.813483
622.000014,5.837168,5.974505,5.823894
623.000014,5.847515,5.986368,5.833673
624.000014,5.857292,5.997526,5.842628
625.000014,5.867419,6.008405,5.851177
626.000014,5.875726,6.018177,5.858574
627.000014,5.882627,6.026321,5.864552
628.000014,5.888506,6.033549,5.869714
629.000014,5.893856,6.040086,5.874436
630.000014,5.899825,6.047357,5.879871
631.000014,5.905644,6.054461,5.885185
632.000014,5.913926,6.064161,5.892869
633.000014,5.923936,6.075767,5.902286
634.000014,5.936266,6.089896,5.914001
635.000014,5.947633,6.102913,5.924449
636.000014,5.956314,6.113924,5.932708
637.000014,5.964379,6.123608,5.939639
638.000014,5.970602,6.131499,5.944947
639.000014,5.976357,6.138388,5.949506
640.000014,5.980265,6.143786,5.952811
641.000014,5.985103,6.150183,5.957057
642.000014,5.992234,6.158453,5.962995
643.000014,6.002651,6.170655,5.972566
644.000014,6.015202,6.185318,5.984156
645.000014,6.027879,6.200593,5.996009
646.000014,6.039247,6.214668,6.006102
647.000014,6.049187,6.227434,6.014890
648.000014,6.057214,6.238603,6.021997
649.000014,6.064185,6.248054,6.027729
650.000014,6.068455,6.254354,6.031022
650.500026,6.071634,6.258772,6.033230
651.000026,6.073421,6.261682,6.034711
651.500026,6.075648,6.264902,6.036576
652.000026,6.077344,6.267575,6.038017
652.500026,6.078686,6.269611,6.038823
653.000026,6.079904,6.272223,6.040317
653.500026,6.082914,6.276102,6.043044
654.000026,6.085980,6.280050,6.045844
654.500026,6.089770,6.284304,6.048707
655.000026,6.093970,6.289568,6.052387
655.500026,6.098431,6.295809,6.056758
656.000026,6.105178,6.303847,6.062851
656.500026,6.112239,6.312327,6.069310
657.000026,6.120338,6.321494,6.076397
657.500026,6.125746,6.329579,6.082315
658.000026,6.131207,6.336856,6.087329
658.500026,6.136352,6.344032,6.092063
659.000026,6.141908,6.350615,6.095939
659.500026,6.146007,6.356845,6.099520
660.000026,6.149250,6.361965,6.102042
660.500026,6.152845,6.367069,6.104755
661.000026,6.156109,6.371876,6.107072
661.500026,6.159006,6.376879,6.109606
662.000026,6.161045,6.380879,6.111341
662.500026,6.162813,6.384196,6.112498
663.000026,6.165300,6.387655,6.114064
663.500026,6.167253,6.390774,6.115383
664.000026,6.169035,6.393496,6.116621
664.500026,6.169787,6.395748,6.117273
665.000026,6.172320,6.399517,6.119433
665.500026,6.175232,6.403934,6.122063
666.000026,6.178148,6.407832,6.124176
666.500026,6.180965,6.412330,6.126649
667.000026,6.185577,6.419135,6.130992
667.500026,6.192476,6.428450,6.137346
668.000026,6.199565,6.438706,6.144402
668.500026,6.207827,6.449117,6.151547
669.000026,6.215242,6.459189,6.158128
669.500026,6.222855,6.468653,6.163654
670.000026,6.227930,6.477167,6.167978
670.500026,6.233118,6.485139,6.171635
671.000026,6.236971,6.492972,6.175201
671.500026,6.241600,6.500302,6.178165
672.000026,6.245061,6.507209,6.180732
672.500026,6.248833,6.513317,6.182455
673.000026,6.251467,6.518734,6.183690
673.500026,6.253806,6.523706,6.184815
674.000026,6.255826,6.528405,6.185813
674.500026,6.258409,6.533408,6.187145
675.000026,6.260676,6.538049,6.188092
675.500026,6.262936,6.542348,6.188619
676.000026,6.264813,6.546763,6.189157
676.500026,6.266464,6.550715,6.189272
677.000026,6.267634,6.554226,6.189246
677.500026,6.268078,6.556572,6.188324
678.000026,6.269044,6.559136,6.187763
678.500026,6.270257,6.561621,6.187097
679.000026,6.271218,6.564060,6.186612
679.500026,6.272481,6.567019,6.186469
680.000026,6.274080,6.570320,6.186629
680.500026,6.277050,6.574728,6.187440
681.000026,6.278595,6.578703,6.187295
681.500026,6.281265,6.583750,6.187089
682.000026,6.285191,6.591025,6.186193
682.500026,6.288412,7.610822,6.186018
683.000026,,8.629300,
683.500026,1.761531,9.650427,1.660425
684.000026,1.763887,9.654987,1.661718
684.500026,1.768231,9.654278,1.663587
685.000026,1.762877,9.645345,1.658642
685.500026,1.757002,9.639314,1.653092
686.000026,1.750874,9.637767,1.647078
686.500026,1.741799,9.637450,1.638306
687.000026,1.737210,9.637369,1.633633
