?? [s],A 1.dY [mm],B1.dY [mm],C1.dY [mm]
0.000000,0.000000,0.000000,0.000000
10.000000,0.072332,0.073231,0.073156
20.000000,0.193271,0.195693,0.195416
30.000000,0.327088,0.330541,0.330700
40.000000,0.443901,0.448434,0.448868
50.000000,0.542803,0.548314,0.548904
60.000000,0.657110,0.664017,0.664313
70.000000,0.757077,0.764647,0.764612
80.000000,0.880476,0.888122,0.887360
90.000000,1.022455,1.029737,1.028175
100.000000,1.177079,1.183773,1.181530
110.000000,1.339085,1.345690,1.343113
120.000000,1.501354,1.507721,1.504963
130.000000,1.669242,1.675962,1.673425
140.000000,1.823633,1.831242,1.829505
150.000000,1.969236,1.977434,1.976286
160.000000,2.100213,2.109398,2.108319
170.000000,2.223705,2.233071,2.231271
180.000000,2.330822,2.340978,2.338059
190.000000,2.436221,2.446500,2.442280
200.000000,2.539852,2.550729,2.544877
210.000000,2.645157,2.656766,2.649382
220.000000,2.747341,2.759930,2.750831
230.000000,2.847555,2.861105,2.850520
240.000000,2.952893,2.967561,2.955290
250.000000,3.037537,3.052547,3.039512
260.000000,3.100098,3.115895,3.101803
270.000000,3.156719,3.173458,3.157840
280.000000,3.230942,3.249249,3.230967
290.000000,3.328330,3.347987,3.326626
300.000000,3.425247,3.446503,3.422182
310.000000,3.523073,3.546271,3.518630
320.000000,3.622945,3.648391,3.617448
330.000000,3.720793,3.748246,3.713904
340.000000,3.813988,3.843647,3.805830
350.000000,3.903970,3.936005,3.894603
360.000000,3.997656,4.032311,3.987313
370.000000,4.092133,4.129878,4.081013
380.000000,4.186074,4.226909,4.173976
390.000000,4.278169,4.322442,4.265545
400.000000,4.369573,4.417328,4.356336
410.000000,4.461165,4.512775,4.447659
420.000000,4.557147,4.612962,4.543030
430.000000,4.646194,4.706204,4.631553
440.000000,4.737159,4.801380,4.721859
450.000000,4.824918,4.893704,4.809115
460.000000,4.920454,4.994249,4.904331
470.000000,4.983264,5.060827,4.967010
471.000014,5.017877,5.097452,5.001527
472.000014,5.025730,5.105765,5.009414
473.000014,5.032296,5.112759,5.015991
474.000014,5.037597,5.118447,5.021186
475.000014,5.041872,5.123282,5.025387
476.000014,5.048093,5.129885,5.031661
477.000014,5.055272,5.137460,5.038898
478.000014,5.065291,5.147882,5.049061
479.000014,5.077529,5.160867,5.061330
480.000014,5.089702,5.173746,5.073571
481.000014,5.101443,5.186330,5.085265
482.000014,5.112298,5.198049,5.096193
483.000014,5.123665,5.210364,5.107506
484.000014,5.134708,5.222169,5.118486
485.000014,5.144135,5.232159,5.127833
486.000014,5.151820,5.240351,5.135528
487.000014,5.158067,5.247214,5.141744
488.000014,5.163538,5.253178,5.147078
489.000014,5.168157,5.258274,5.151704
490.000014,5.172779,5.263100,5.156319
491.000014,5.178140,5.268815,5.161757
492.000014,5.186043,5.277272,5.169810
493.000014,5.197822,5.289994,5.181732
494.000014,5.212489,5.305843,5.196505
495.000014,5.228617,5.323140,5.212697
496.000014,5.242435,5.338035,5.226492
497.000014,5.255107,5.351633,5.239223
498.000014,5.265748,5.363196,5.249841
499.000014,5.274742,5.372945,5.259020
500.000014,5.281719,5.380622,5.266135
501.000014,5.288036,5.387591,5.272458
502.000014,5.293522,5.393823,5.277977
503.000014,5.297969,5.398843,5.282351
504.000014,5.301792,5.403095,5.286225
505.000014,5.305745,5.407251,5.290052
506.000014,5.310489,5.412349,5.294783
507.000014,5.317382,5.419721,5.301687
508.000014,5.328245,5.431603,5.312705
509.000014,5.342652,5.447211,5.327253
510.000014,5.358638,5.464530,5.343377
511.000014,5.372822,5.480012,5.357814
512.000014,5.385442,5.493579,5.370519
513.000014,5.396416,5.505741,5.381589
514.000014,5.405260,5.515359,5.390456
515.000014,5.412561,5.523756,5.397883
516.000014,5.418334,5.530342,5.403775
517.000014,5.423302,5.536152,5.408803
518.000014,5.428110,5.541389,5.413612
519.000014,5.432152,5.545869,5.417729
520.000014,5.435444,5.549521,5.421064
521.000014,5.439439,5.554190,5.425080
522.000014,5.444649,5.560044,5.430310
523.000014,5.454314,5.570596,5.440176
524.000014,5.466649,5.583883,5.452738
525.000014,5.480607,5.599169,5.466991
526.000014,5.495309,5.615427,5.481931
527.000014,5.510372,5.632181,5.497261
528.000014,5.524066,5.647425,5.511184
529.000014,5.534397,5.659233,5.521754
530.000014,5.540674,5.666670,5.528296
530.500026,5.545772,5.672666,5.533608
531.000026,5.549679,5.677055,5.537520
531.500026,5.553079,5.680874,5.540835
532.000026,5.555730,5.683932,5.543558
532.500026,5.558224,5.686990,5.546053
533.000026,5.560563,5.689920,5.548504
533.500026,5.563265,5.693056,5.551128
534.000026,5.565277,5.695346,5.553301
534.500026,5.566770,5.696970,5.554824
535.000026,5.567740,5.698056,5.555892
535.500026,5.569124,5.699730,5.557293
536.000026,5.571716,5.702745,5.560034
536.500026,5.575182,5.706776,5.563553
537.000026,5.579050,5.711086,5.567523
537.500026,5.582749,5.715289,5.571282
538.000026,5.587926,5.720989,5.576657
538.500026,5.594293,5.727960,5.583126
539.000026,5.601986,5.736369,5.591011
539.500026,5.609214,5.744446,5.598283
540.000026,5.616486,5.752655,5.605717
540.500026,5.623069,5.760259,5.612591
541.000026,5.629209,5.767555,5.619015
541.500026,5.634980,5.774264,5.624941
542.000026,5.640734,5.780914,5.630835
542.500026,5.645577,5.786647,5.635911
543.000026,5.649523,5.791502,5.640113
543.500026,5.653094,5.795933,5.643878
544.000026,5.657309,5.800734,5.648201
544.500026,5.661320,5.805545,5.652458
545.000026,5.664296,5.809323,5.655630
545.500026,5.666175,5.811990,5.657644
546.000026,5.667761,5.814206,5.659295
546.500026,5.669355,5.816250,5.660979
547.000026,5.671281,5.818531,5.662975
547.500026,5.673479,5.821182,5.665308
548.000026,5.676250,5.824423,5.668157
548.500026,5.678797,5.827726,5.670885
549.000026,5.681861,5.831332,5.674019
549.500026,5.685411,5.835476,5.677508
550.000026,5.691421,5.842102,5.683644
550.500026,5.698403,5.849967,5.690808
551.000026,5.705841,5.858573,5.698663
551.500026,5.712259,5.866006,5.705340
552.000026,5.718239,5.873050,5.711516
552.500026,5.723669,5.879434,5.717119
553.000026,5.729272,5.886313,5.723113
553.500026,5.734887,5.893357,5.729267
554.000026,5.740439,5.900310,5.735266
554.500026,5.744883,5.905953,5.740108
555.000026,5.748490,5.910632,5.743929
555.500026,5.751981,5.915144,5.747693
556.000026,5.755517,5.919523,5.751309
556.500026,5.759149,5.923919,5.755036
557.000026,5.761983,5.927580,5.758055
557.500026,5.764528,5.930810,5.760681
558.000026,5.766210,5.933285,5.762474
558.500026,5.768379,5.936033,5.764521
559.000026,5.770239,5.938629,5.766512
559.500026,5.771639,5.940412,5.768020
560.000026,5.772438,5.941692,5.769050
560.500026,5.774068,5.943773,5.770807
561.000026,5.776726,5.947184,5.773726
561.500026,5.779976,5.951201,5.777266
562.000026,5.783316,5.955442,5.780887
562.500026,5.788149,5.961114,5.785989
563.000026,5.794733,5.968752,5.792813
563.500026,5.801812,5.976964,5.800222
564.000026,5.808524,5.985006,5.807258
564.500026,5.814168,5.991989,5.813263
565.000026,5.819995,5.999317,5.819560
565.500026,5.826080,6.007051,5.826154
566.000026,5.831892,6.014707,5.832566
566.500026,5.836529,6.021169,5.837727
567.000026,5.839464,6.025605,5.841057
567.500026,5.841947,6.029239,5.843827
568.000026,5.844820,6.033327,5.846862
568.500026,5.847895,6.037653,5.850241
569.000026,5.850903,6.042143,5.853583
569.500026,5.853927,6.046308,5.856982
570.000026,5.856781,6.050330,5.860170
570.500026,5.859309,6.053629,5.862937
571.000026,5.860966,6.056048,5.864815
571.500026,5.862048,6.057821,5.866070
572.000026,5.863665,6.060271,5.867879
572.500026,5.865449,6.063021,5.869916
573.000026,5.868046,6.066476,5.872698
573.500026,5.870976,6.070392,5.875884
574.000026,5.874870,6.075234,5.879956
574.500026,5.879836,6.081468,5.885165
575.000026,5.886127,6.089223,5.891862
575.500026,5.893244,6.098119,5.899425
576.000026,5.901075,6.108024,5.908067
576.500026,5.908615,6.117722,5.916190
577.000026,5.915186,6.126666,5.923567
577.500026,5.920345,6.134254,5.929265
578.000026,5.924248,6.140829,5.934044
578.500026,5.928399,6.147603,5.938901
579.000026,5.933255,6.154780,5.944539
579.500026,5.938439,6.162211,5.950381
580.000026,5.942776,6.168545,5.955475
580.500026,5.945462,6.173402,5.958786
581.000026,5.947072,6.176931,5.961026
581.500026,5.948711,6.180347,5.962994
582.000026,5.951395,6.184408,5.965912
582.500026,5.954507,6.188747,5.969211
583.000026,5.957013,6.192535,5.972032
583.500026,5.958163,6.195133,5.973676
584.000026,5.958998,6.197209,5.974825
584.500026,5.960830,6.200213,5.976910
585.000026,5.964859,6.205318,5.981115
585.500026,5.970448,6.212453,5.987211
586.000026,5.976300,6.219813,5.993588
586.500026,5.980998,6.226392,5.998986
587.000026,5.984676,6.231903,6.003218
587.500026,5.988104,6.237373,6.007290
588.000026,5.991492,6.242531,6.011192
588.500026,5.994513,6.247118,6.014558
589.000026,5.996323,6.250457,6.016819
589.500026,5.997556,6.253186,6.018385
590.000026,5.998610,6.255701,6.019890
590.500026,6.000064,6.258714,6.021792
591.000026,6.001880,6.262082,6.024046
591.500026,6.005173,6.267335,6.027970
592.000026,6.010114,6.274476,6.033566
592.500026,6.016415,6.283528,6.040860
593.000026,6.022618,6.292857,6.048044
593.500026,6.027786,6.301317,6.054376
594.000026,6.031979,6.308769,6.059712
594.500026,6.035492,6.315361,6.064336
595.000026,6.038842,6.321704,6.068594
595.500026,6.041732,6.327396,6.072287
596.000026,6.044109,6.332376,6.075417
596.500026,6.045687,6.336522,6.077685
597.000026,6.047090,6.340363,6.079769
597.500026,6.048375,6.343934,6.081598
598.000026,6.049700,6.347110,6.083500
598.500026,6.050671,6.349825,6.084948
599.000026,6.051748,6.352571,6.086458
599.500026,6.053323,6.355840,6.088428
600.000026,6.055905,6.360184,6.091490
600.500026,6.059192,6.365548,6.095531
601.000026,6.063097,6.372117,6.100485
601.500026,6.067151,6.379515,6.105807
602.000026,6.071882,6.387911,6.111815
602.500026,6.076956,6.396899,6.118228
603.000026,6.082045,6.406013,6.124701
603.500026,6.086385,6.414686,6.130517
604.000026,6.090058,6.423086,6.135708
604.500026,6.093017,6.431125,6.140439
605.000026,6.095306,6.438610,6.144627
605.500026,6.097251,6.445436,6.148338
606.000026,6.099131,6.451736,6.151743
606.500026,6.100766,6.457542,6.154850
607.000026,6.102032,6.462929,6.157689
607.500026,6.103163,6.468192,6.160320
608.000026,6.104358,6.473478,6.163027
608.500026,6.105220,6.478310,6.165460
609.000026,6.105472,6.482348,6.167274
609.500026,6.105072,6.485296,6.168158
610.000026,6.104716,6.487952,6.168873
610.500026,6.104591,6.490413,6.169749
611.000026,6.104959,6.493431,6.171211
611.500026,6.105616,6.496780,6.173029
612.000026,6.106009,6.500298,6.174809
612.500026,6.106026,6.504074,6.176535
613.000026,6.106137,6.508749,6.178822
613.500026,6.106995,6.515761,6.182865
614.000026,6.107478,6.525572,6.188526
614.500026,6.105502,6.538120,6.194995
615.000026,6.098055,6.553208,6.201047
615.500026,6.093495,6.561005,6.203989
616.000026,,,
616.500026,2.565970,8.667070,2.630224
617.000026,2.554384,8.656743,2.618424
617.500026,2.533409,8.638019,2.597172
618.000026,2.520813,8.625632,2.584730
618.500026,2.512024,8.616233,2.575788
619.000026,2.503443,8.608019,2.567188
619.500026,2.492981,8.599921,2.556679
620.000026,2.482275,8.595253,2.546226
620.500026,2.477097,8.593959,2.541091
