?? [s],A 1.dY [mm],B1.dY [mm],B2.dY [mm],C1.dY [mm]
0.000000,0.000000,0.000000,0.000000,0.000000
10.000000,0.045120,0.045670,0.045709,0.045164
20.000000,0.166524,0.167604,0.167961,0.166068
30.000000,0.310091,0.311848,0.312503,0.309193
40.000000,0.423338,0.425399,0.426461,0.422376
50.000000,0.504449,0.507368,0.508678,0.504107
60.000000,0.584601,0.587845,0.589420,0.583960
70.000000,0.696511,0.700546,0.702485,0.695886
80.000000,0.814043,0.818549,0.820520,0.813370
90.000000,0.958480,0.963458,0.965624,0.958179
100.000000,1.116174,1.121224,1.123470,1.115751
110.000000,1.275630,1.280591,1.283144,1.275087
120.000000,1.438057,1.442905,1.445720,1.437152
130.000000,1.589916,1.594357,1.597331,1.587869
140.000000,1.723797,1.728002,1.731271,1.719983
150.000000,1.828276,1.832822,1.836147,1.822880
160.000000,1.918830,1.924029,1.927640,1.912065
170.000000,2.012645,2.018935,2.023001,2.005113
180.000000,2.107632,2.115323,2.119731,2.099489
190.000000,2.180150,2.187964,2.192196,2.172768
200.000000,2.229282,2.237032,2.240909,2.222404
210.000000,2.313678,2.322025,2.326263,2.306419
220.000000,2.417409,2.428196,2.433253,2.408925
230.000000,2.535585,2.548776,2.554771,2.525844
240.000000,2.627910,2.643001,2.649475,2.617764
250.000000,2.722817,2.739910,2.746791,2.712061
260.000000,2.819408,2.839016,2.846266,2.808559
270.000000,2.919537,2.941622,2.949509,2.908317
280.000000,3.009925,3.034563,3.043025,2.998465
290.000000,3.109394,3.136865,3.146011,3.097494
300.000000,3.197649,3.228395,3.238046,3.185650
310.000000,3.291387,3.325508,3.335836,3.279262
320.000000,3.382844,3.420695,3.431798,3.370649
330.000000,3.472011,3.513569,3.525350,3.459768
340.000000,3.563839,3.609368,3.621863,3.551299
350.000000,3.650994,3.700504,3.713766,3.638207
360.000000,3.741997,3.795713,3.809833,3.728997
370.000000,3.828045,3.886053,3.900965,3.815000
380.000000,3.915036,3.977754,3.993319,3.902024
390.000000,4.003599,4.071262,4.087604,3.990281
400.000000,4.094293,4.167413,4.184714,4.080890
410.000000,4.181558,4.260260,4.278358,4.168271
420.000000,4.265636,4.350182,4.369112,4.252832
430.000000,4.351202,4.442073,4.461778,4.338975
440.000000,4.441582,4.539526,4.560270,4.429829
450.000000,4.528740,4.634328,4.655996,4.517826
460.000000,4.615755,4.729844,4.752481,4.606064
470.000000,4.673834,4.794224,4.817367,4.665424
471.000014,4.711273,4.835795,4.859171,4.703748
472.000014,4.720281,4.846203,4.869579,4.713051
473.000014,4.729433,4.856346,4.879861,4.722263
474.000014,4.736935,4.864768,4.888429,4.729809
475.000014,4.744197,4.872784,4.896564,4.737304
476.000014,4.749462,4.878826,4.902658,4.742886
477.000014,4.752979,4.883071,4.906990,4.746744
478.000014,4.757605,4.888369,4.912497,4.751414
479.000014,4.763273,4.894777,4.918983,4.757019
480.000014,4.772878,4.905383,4.929792,4.766599
481.000014,4.784466,4.918516,4.943090,4.778746
482.000014,4.797504,4.933272,4.957991,4.792350
483.000014,4.810017,4.947563,4.972221,4.805311
484.000014,4.821642,4.960927,4.985349,4.817355
485.000014,4.831901,4.972853,4.997322,4.828026
486.000014,4.841346,4.983878,5.008620,4.837912
487.000014,4.847181,4.990862,5.015839,4.843948
488.000014,4.853835,4.998692,5.023654,4.850893
489.000014,4.858584,5.004347,5.029184,4.855935
490.000014,4.864002,5.010581,5.035521,4.861512
491.000014,4.869938,5.017508,5.042476,4.867708
492.000014,4.878333,5.027058,5.052231,4.876244
493.000014,4.888455,5.038782,5.063902,4.886709
494.000014,4.898708,5.050663,5.076020,4.897457
495.000014,4.909078,5.062979,5.088300,4.908447
496.000014,4.918745,5.074391,5.099850,4.918629
497.000014,4.926812,5.084034,5.109625,4.927057
498.000014,4.933515,5.092097,5.117856,4.934255
499.000014,4.939885,5.099955,5.125747,4.941112
500.000014,4.946178,5.107497,5.133288,4.947692
501.000014,4.952401,5.115204,5.141047,4.954293
502.000014,4.959498,5.123501,5.149563,4.961728
503.000014,4.966583,5.132077,5.158197,4.969296
504.000014,4.974287,5.141023,5.167125,4.977258
505.000014,4.982617,5.151040,5.176904,4.986180
506.000014,4.990792,5.161144,5.187008,4.994973
507.000014,5.000270,5.172845,5.198978,5.005253
508.000014,5.010536,5.185461,5.211979,5.016206
509.000014,5.020716,5.197953,5.224660,5.027004
510.000014,5.029057,5.208675,5.235315,5.036007
511.000014,5.036411,5.218040,5.244607,5.043881
512.000014,5.042453,5.226068,5.252684,5.050784
513.000014,5.047363,5.232592,5.259300,5.056336
514.000014,5.051631,5.238447,5.265375,5.061234
515.000014,5.058053,5.246528,5.273517,5.067986
516.000014,5.066809,5.257376,5.284433,5.077432
517.000014,5.077557,5.270658,5.297796,5.088964
518.000014,5.089846,5.286000,5.313348,5.102209
519.000014,5.102398,5.302267,5.329760,5.116001
520.000014,5.112930,5.316690,5.344154,5.128011
521.000014,5.122271,5.329788,5.357232,5.138984
522.000014,5.130286,5.340959,5.368388,5.148137
523.000014,5.138320,5.351952,5.379678,5.157214
524.000014,5.145592,5.361934,5.389770,5.165438
525.000014,5.151163,5.369897,5.397990,5.171950
526.000014,5.155979,5.376643,5.404744,5.177547
527.000014,5.159710,5.382025,5.410286,5.181926
528.000014,5.163083,5.387074,5.415252,5.185951
529.000014,5.166697,5.392249,5.420247,5.190059
530.000014,5.169404,5.396678,5.424460,5.193250
531.000014,5.175188,5.404333,5.432243,5.199574
532.000014,5.183332,5.414938,5.442958,5.208564
533.000014,5.192918,5.427273,5.455475,5.219171
534.000014,5.201156,5.438928,5.467043,5.228764
535.000014,5.208565,5.450056,5.478290,5.237561
536.000014,5.216115,5.461577,5.489854,5.246746
537.000014,5.223803,5.473046,5.501612,5.255900
538.000014,5.230470,5.483591,5.512232,5.264054
539.000014,5.236749,5.493906,5.522556,5.271678
540.000014,5.243369,5.504519,5.532984,5.279656
541.000014,5.249705,5.514864,5.543276,5.287584
542.000014,5.256462,5.525335,5.553895,5.295821
543.000014,5.263436,5.536147,5.564787,5.304067
544.000014,5.269736,5.546341,5.575090,5.311662
545.000014,5.275211,5.555774,5.584626,5.318440
546.000014,5.280933,5.565420,5.594288,5.325803
547.000014,5.286922,5.575600,5.604606,5.333612
548.000014,5.293628,5.586639,5.615584,5.342172
549.000014,5.301444,5.599726,5.628888,5.352010
550.000014,5.310247,5.614652,5.643824,5.363047
551.000014,5.317858,5.629230,5.658469,5.373423
552.000014,5.323607,5.641530,5.670605,5.381774
553.000014,5.328048,5.651993,5.681038,5.388519
554.000014,5.332281,5.661506,5.690455,5.394655
555.000014,5.335237,5.669246,5.698306,5.399424
556.000014,5.337723,5.675669,5.704752,5.403275
557.000014,5.340658,5.682834,5.711987,5.407881
558.000014,5.344314,5.691312,5.720309,5.413482
559.000014,5.349967,5.703475,5.732455,5.422017
560.000014,5.356180,5.718175,5.747155,5.432062
561.000014,5.361877,5.735006,5.764298,5.442995
562.000014,5.365287,5.752398,5.781748,5.453048
563.000014,5.365119,5.769608,5.798773,5.461403
564.000014,5.358682,5.788618,5.817232,5.468612
565.000014,4.203134,6.455771,6.475812,4.339618
566.000014,3.045131,7.115558,7.126992,3.204403
567.000014,1.885068,7.763833,7.767125,2.059610
568.000014,1.869068,7.755623,7.758821,2.043631
569.000014,1.851680,7.748380,7.751764,2.026233
570.000014,1.836103,7.746188,7.749428,2.010831
571.000014,1.827931,7.745794,7.748969,2.002520
572.000014,,,,
