?? [s],A.dY [mm],B.dY [mm],C.dY [mm],D.dY [mm],E.dY [mm]
0.000000,0.000000,0.000000,0.000000,0.000000,0.000000
10.000000,0.000482,0.000646,0.000694,0.000004,-0.000615
20.000000,0.052961,0.054286,0.053958,0.054148,0.053261
30.000000,0.231186,0.231810,0.232071,0.230704,0.229073
40.000000,0.344221,0.344772,0.344058,0.344278,0.343655
50.000000,0.386842,0.387927,0.387651,0.387079,0.386011
60.000000,0.422566,0.422323,0.422435,0.421097,0.419702
70.000000,0.440468,0.441604,0.441409,0.440930,0.439887
80.000000,0.512635,0.513251,0.513972,0.512453,0.511140
90.000000,0.598240,0.598847,0.599551,0.598087,0.596448
100.000000,0.648058,0.649260,0.649474,0.647896,0.646337
110.000000,0.742503,0.743213,0.743887,0.742841,0.740958
120.000000,0.798786,0.798923,0.799593,0.798060,0.796719
130.000000,0.864163,0.865090,0.864876,0.864653,0.863935
140.000000,0.918150,0.919210,0.918576,0.918273,0.917322
150.000000,0.986956,0.985863,0.985351,0.984486,0.982404
160.000000,1.049122,1.049577,1.048553,1.048517,1.046754
170.000000,1.111419,1.112006,1.111758,1.111024,1.109805
180.000000,1.169666,1.169454,1.167184,1.167779,1.165761
190.000000,1.256763,1.257092,1.255061,1.255928,1.254452
200.000000,1.317038,1.316979,1.314150,1.315259,1.313297
210.000000,1.406256,1.406299,1.403272,1.404763,1.403261
220.000000,1.469984,1.469650,1.466006,1.468440,1.466295
230.000000,1.561403,1.561585,1.557578,1.559705,1.558294
240.000000,1.651573,1.650327,1.646777,1.648827,1.646967
250.000000,1.727174,1.726854,1.722977,1.725575,1.724290
260.000000,1.800121,1.799688,1.795388,1.798072,1.797030
270.000000,1.888249,1.887090,1.882801,1.885552,1.884288
280.000000,1.972266,1.971164,1.967418,1.969740,1.968307
290.000000,2.041596,2.041681,2.037659,2.040286,2.039081
300.000000,2.147357,2.147839,2.145365,2.146638,2.145869
310.000000,2.189867,2.190447,2.187787,2.189735,2.187949
320.000000,2.236324,2.237499,2.234989,2.236320,2.234592
330.000000,2.266378,2.266577,2.262326,2.264312,2.262764
340.000000,2.292895,2.293086,2.290437,2.291838,2.290900
350.000000,2.331311,2.331638,2.329031,2.330991,2.329373
360.000000,2.370239,2.370161,2.367280,2.369116,2.366667
370.000000,2.428856,2.429170,2.427509,2.428657,2.426782
380.000000,2.469753,2.470995,2.468981,2.469923,2.467773
390.000000,2.524002,2.525099,2.523311,2.523589,2.522583
400.000000,2.579819,2.579728,2.578296,2.578391,2.577291
410.000000,2.614338,2.615216,2.614025,2.614350,2.612627
420.000000,2.679255,2.679281,2.678974,2.677074,2.675333
430.000000,2.713109,2.714316,2.714532,2.713201,2.711497
440.000000,2.766973,2.767927,2.767816,2.766433,2.765123
450.000000,2.818511,2.819433,2.817480,2.817465,2.816176
460.000000,2.858144,2.859188,2.857727,2.858035,2.856502
470.000000,2.918336,2.919404,2.917580,2.917207,2.915600
480.000000,2.970440,2.971622,2.968979,2.969234,2.967090
490.000000,3.004255,3.005613,3.003493,3.003628,3.002875
500.000000,3.070892,3.072124,3.069026,3.070437,3.067943
510.000000,3.115526,3.117156,3.113833,3.114976,3.112812
520.000000,3.152899,3.154877,3.151449,3.152543,3.151547
530.000000,3.213685,3.215669,3.211963,3.213809,3.212362
540.000000,3.247982,3.249791,3.246048,3.247838,3.247069
550.000000,3.320943,3.324326,3.320767,3.323388,3.323045
560.000000,3.378055,3.380818,3.376954,3.379601,3.379171
570.000000,3.402801,3.405363,3.400048,3.404024,3.402658
580.000000,3.436957,3.440562,3.435203,3.438296,3.437459
590.000000,3.494343,3.497772,3.491475,3.495608,3.495004
600.000000,3.544900,3.548478,3.541965,3.547327,3.546281
610.000000,3.635297,3.639606,3.632095,3.638564,3.637715
620.000000,3.658574,3.664578,3.657540,3.663998,3.664166
630.000000,3.667908,3.673749,3.666116,3.672510,3.672040
640.000000,3.731700,3.737485,3.727452,3.736942,3.736349
650.000000,3.772966,3.779862,3.769109,3.778879,3.778139
660.000000,3.802196,3.809748,3.799392,3.809102,3.809679
670.000000,3.876136,3.883518,3.872557,3.883362,3.883274
680.000000,3.913213,3.921182,3.909037,3.920863,3.920930
690.000000,3.932624,3.941475,3.928714,3.941720,3.942869
700.000000,4.004904,4.014864,4.000151,4.014659,4.015163
710.000000,4.034503,4.044164,4.028879,4.044002,4.045773
720.000000,4.088837,4.100200,4.083456,4.100180,4.101981
730.000000,4.122203,4.133957,4.116396,4.135352,4.137969
740.000000,4.181302,4.194842,4.176914,4.194711,4.196896
750.000000,4.198609,4.212027,4.192996,4.213311,4.215365
760.000000,4.264926,4.279678,4.259317,4.280494,4.283697
770.000000,4.313899,4.329488,4.307797,4.330399,4.333569
775.643230,4.341303,4.357770,4.334463,4.359053,4.363665
780.643230,4.369744,4.387441,4.363932,4.388652,4.392340
785.643230,4.382313,4.400025,4.375711,4.402051,4.406071
790.643230,4.382311,4.400324,4.375841,4.402599,4.406064
795.643230,4.407368,4.426699,4.401213,4.428506,4.432628
800.643230,4.417971,4.437750,4.411726,4.439438,4.442943
805.643230,4.452476,4.472342,4.445997,4.474517,4.478668
810.643230,4.470460,4.491339,4.464033,4.493596,4.497671
815.643230,4.508499,4.530111,4.501741,4.532275,4.536847
820.643230,4.520745,4.542665,4.513100,4.545469,4.550617
825.643230,4.530363,4.552673,4.522897,4.555862,4.561508
830.643230,4.569686,4.592585,4.562219,4.595689,4.601466
835.643230,4.580221,4.603008,4.572234,4.607178,4.613652
840.643230,4.598071,4.623374,4.590581,4.626198,4.631671
845.643230,4.649708,4.676140,4.641632,4.679179,4.685215
850.643230,4.664802,4.692157,4.656754,4.696543,4.703987
855.643230,4.676462,4.703494,4.667288,4.707305,4.714413
860.643230,4.701016,4.729178,4.693163,4.732907,4.739692
865.643230,4.712436,4.740160,4.704052,4.744379,4.752379
870.643230,4.730700,4.759652,4.721021,4.763490,4.770588
875.643230,4.762196,4.791694,4.753298,4.796131,4.803791
880.643230,4.771452,4.801700,4.761949,4.805561,4.812994
885.643230,4.802686,4.835080,4.793822,4.840326,4.848972
890.643230,4.840091,4.873553,4.831076,4.878466,4.887028
895.643230,4.857669,4.891778,4.848102,4.896980,4.905206
900.573144,4.859418,4.894195,4.849866,4.899244,4.907464
901.073144,4.860674,4.895498,4.850848,4.900209,4.908791
901.573144,4.863890,4.898378,4.853935,4.903218,4.911433
902.073144,4.864781,4.899543,4.854741,4.904389,4.912687
902.573144,4.865468,4.900321,4.855458,4.904760,4.913212
903.073144,4.865463,4.900386,4.855636,4.905558,4.914162
903.573144,4.864978,4.899773,4.854713,4.904865,4.913316
904.073144,4.866277,4.901411,4.856361,4.906310,4.914772
904.573144,4.868771,4.903821,4.858538,4.908872,4.917243
905.073144,4.871208,4.906666,4.861164,4.911857,4.920024
905.573144,4.872194,4.907283,4.861646,4.912397,4.921281
906.073144,4.869565,4.905078,4.859341,4.910124,4.918634
906.573144,4.869815,4.905642,4.859448,4.910977,4.919690
907.073144,4.874975,4.910826,4.864739,4.916171,4.925310
907.573144,4.883059,4.919288,4.873064,4.924826,4.934445
908.073144,4.889938,4.926136,4.880100,4.932071,4.942183
908.573144,4.894816,4.931181,4.884994,4.937116,4.946398
909.073144,4.893919,4.931160,4.884483,4.937078,4.946533
909.573144,4.894035,4.931276,4.884520,4.937160,4.946768
910.073144,4.897324,4.934752,4.887598,4.940587,4.949728
910.573144,4.900777,4.938264,4.891045,4.943954,4.953189
911.073144,4.903834,4.941463,4.893640,4.947006,4.956314
911.573144,4.908393,4.946166,4.898044,4.951483,4.960466
912.073144,4.908914,4.946477,4.898325,4.952016,4.961290
912.573144,4.933014,4.970458,4.923328,4.976065,4.985818
913.073144,4.937171,4.974589,4.927754,4.980484,4.990120
913.573144,4.941383,4.978891,4.931675,4.984742,4.993943
914.073144,4.942705,4.980270,4.933126,4.986190,4.995486
914.573144,4.940821,4.978426,4.930912,4.984297,4.994084
915.073144,4.941198,4.979117,4.931756,4.985107,4.994990
915.573144,4.944597,4.982307,4.934669,4.988275,4.997535
916.073144,4.947507,4.985117,4.937320,4.990895,5.000303
916.573144,4.949802,4.987634,4.939772,4.993470,5.003142
917.073144,4.951002,4.988710,4.940561,4.994443,5.003773
917.573144,4.950370,4.988523,4.940107,4.994152,5.003681
918.073144,4.951935,4.990352,4.941998,4.996270,5.005761
918.573144,4.953773,4.992140,4.943217,4.997827,5.007405
919.073144,4.955141,4.993927,4.944811,4.999126,5.008269
919.573144,4.959185,4.997717,4.948388,5.003481,5.012850
920.073144,4.960220,4.999089,4.949632,5.004844,5.014286
920.573144,4.962408,5.001287,4.951348,5.006828,5.016577
921.073144,4.961618,5.000567,4.950574,5.006295,5.015954
921.573144,4.958565,4.997767,4.947857,5.003471,5.012921
922.073144,4.957559,4.996892,4.946890,5.002892,5.012654
922.573144,4.959856,4.998969,4.949237,5.004599,5.014127
923.073144,4.961090,5.000380,4.950143,5.006278,5.015966
923.573144,4.961964,5.001569,4.951247,5.007546,5.017277
924.073144,4.962455,5.001658,4.951257,5.007436,5.017338
924.573144,4.962034,5.001516,4.951155,5.007379,5.017369
925.073144,4.962778,5.002399,4.951943,5.008073,5.018153
925.573144,4.964502,5.003930,4.953204,5.009283,5.019796
926.073144,4.966336,5.005670,4.955052,5.011748,5.022128
926.573144,4.968564,5.008307,4.957563,5.014429,5.025168
927.073144,4.968954,5.009153,4.958020,5.015317,5.026161
927.573144,4.970700,5.010857,4.959786,5.017441,5.027987
928.073144,4.973419,5.013715,4.962692,5.020309,5.031023
928.573144,4.975640,5.016398,4.964987,5.022663,5.033620
929.073144,4.978194,5.019013,4.967411,5.025464,5.036290
929.573144,4.979989,5.020729,4.969217,5.027162,5.037713
930.073144,4.981540,5.022321,4.970903,5.029139,5.039700
930.573144,4.982715,5.023746,4.971995,5.030550,5.040717
931.073144,4.985328,5.026713,4.974840,5.033462,5.043486
931.573144,4.987523,5.028966,4.976981,5.035406,5.045823
932.073144,4.989095,5.030790,4.978572,5.037362,5.047465
932.573144,4.990561,5.032404,4.980047,5.038656,5.048800
933.073144,5.012025,5.053458,5.000892,5.058714,5.070039
933.573144,5.013750,5.055697,5.002994,5.061973,5.072929
934.073144,5.016432,5.057858,5.005408,5.064684,5.075072
934.573144,5.017676,5.058889,5.006167,5.065468,5.075999
935.073144,5.018375,5.060121,5.007662,5.066339,5.077142
935.573144,5.018357,5.060194,5.007537,5.066489,5.077629
936.073144,5.019570,5.061083,5.008451,5.067882,5.078899
936.573144,5.020728,5.062797,5.010022,5.069447,5.080527
937.073144,5.021651,5.063968,5.011406,5.070879,5.082097
937.573144,5.023603,5.065712,5.013130,5.072425,5.083350
938.073144,5.026073,5.068219,5.015622,5.074969,5.085531
938.573144,5.027215,5.069388,5.017064,5.076089,5.086852
939.073144,5.026944,5.069071,5.016326,5.075668,5.086586
939.573144,5.027702,5.069723,5.017101,5.076482,5.087347
940.073144,5.028880,5.071102,5.018426,5.077834,5.088782
940.573144,5.031073,5.073656,5.020878,5.080462,5.090828
941.073144,5.032410,5.074818,5.021824,5.081779,5.092035
941.573144,5.032609,5.075333,5.022042,5.082305,5.092745
942.073144,5.035244,5.077893,5.024967,5.084479,5.094823
942.573144,5.037619,5.080939,5.027378,5.087412,5.098360
943.073144,5.042818,5.086294,5.032023,5.092755,5.103673
943.573144,5.046731,5.090969,5.035753,5.097569,5.108564
944.073144,5.049692,5.094119,5.038295,5.100675,5.111873
944.573144,5.052146,5.097319,5.040838,5.104019,5.115486
945.073144,5.055452,5.100754,5.043999,5.107619,5.119505
945.573144,5.057059,5.102611,5.045462,5.109589,5.121700
946.073144,5.059440,5.104883,5.047706,5.111945,5.123911
946.573144,5.060880,5.106866,5.049179,5.113867,5.125791
947.073144,5.061787,5.107684,5.050226,5.115137,5.127504
947.573144,5.063700,5.109826,5.051831,5.117110,5.129259
948.073144,5.066083,5.112432,5.054278,5.119636,5.131502
948.573144,5.066698,5.113192,5.055066,5.120434,5.132387
949.073144,5.088732,5.134964,5.078169,5.141296,5.152051
949.573144,5.089846,5.136079,5.079173,5.142423,5.153461
950.073144,5.091208,5.137448,5.080705,5.144056,5.155121
950.573144,5.093647,5.139495,5.082572,5.146263,5.157528
951.073144,5.095153,5.141486,5.084147,5.148018,5.159489
951.573144,5.094771,5.141064,5.083670,5.147647,5.159258
952.073144,5.096990,5.143449,5.085791,5.150256,5.161952
952.573144,5.098871,5.145407,5.087600,5.152371,5.164063
953.073144,5.100570,5.147361,5.089349,5.154486,5.166363
953.573144,5.101468,5.148185,5.090206,5.155195,5.166781
954.073144,5.101729,5.148473,5.090171,5.155389,5.167432
954.573144,5.103800,5.150593,5.092230,5.157805,5.169982
955.073144,5.105564,5.152472,5.093945,5.159719,5.172027
955.573144,5.106579,5.153505,5.094762,5.160802,5.173112
956.073144,5.107567,5.154672,5.095890,5.162257,5.174460
956.573144,5.107867,5.155271,5.096034,5.162521,5.174780
957.073144,5.109090,5.156506,5.096961,5.164135,5.176632
957.573144,5.110160,5.157705,5.098222,5.165179,5.177213
958.073144,5.109891,5.157472,5.097815,5.164518,5.176917
958.573144,5.109758,5.157288,5.097681,5.164594,5.177179
959.073144,5.109496,5.157002,5.097367,5.164359,5.176777
959.573144,5.107429,5.154650,5.095665,5.162305,5.174987
960.073144,5.108320,5.156032,5.096707,5.163715,5.176323
960.573144,5.108682,5.156193,5.096945,5.163869,5.176715
961.073144,5.108313,5.156131,5.096717,5.163828,5.176467
961.573144,5.110533,5.158356,5.099046,5.165884,5.178353
962.073144,5.113439,5.161421,5.101588,5.168957,5.180635
962.573144,5.116499,5.164336,5.104694,5.172355,5.184005
963.073144,5.120539,5.169174,5.108858,5.176413,5.188593
963.573144,5.121537,5.170573,5.110559,5.178189,5.190533
964.073144,5.125981,5.175307,5.114983,5.182933,5.195498
964.573144,5.128159,5.178095,5.117323,5.185623,5.197731
965.073144,5.131107,5.181270,5.120360,5.188757,5.201096
965.573144,5.133484,5.183972,5.122268,5.191643,5.204330
966.073144,5.135864,5.187023,5.124579,5.194494,5.207503
966.573144,5.138425,5.189508,5.126779,5.197375,5.210399
967.073144,5.141676,5.193129,5.129743,5.200910,5.214141
967.573144,5.151151,5.202012,5.138412,5.210023,5.223090
968.073144,5.166473,5.217866,5.155181,5.225186,5.237202
968.573144,5.169779,5.221041,5.158584,5.228384,5.240542
969.073144,5.171481,5.222683,5.160074,5.229997,5.242312
969.573144,5.172428,5.224032,5.161419,5.231531,5.243828
970.073144,5.174583,5.226360,5.163575,5.233658,5.246133
970.573144,5.175664,5.227273,5.164518,5.234893,5.247434
971.073144,5.177714,5.229829,5.166987,5.237286,5.249856
971.573144,5.179697,5.231885,5.168760,5.239925,5.252851
972.073144,5.181174,5.233544,5.170118,5.241301,5.254326
972.573144,5.182695,5.235176,5.171676,5.242948,5.256283
973.073144,5.183879,5.236625,5.172473,5.244021,5.257182
973.573144,5.183711,5.236666,5.172358,5.244085,5.257879
974.073144,5.185040,5.237957,5.173283,5.245989,5.259504
974.573144,5.186456,5.239783,5.174750,5.247705,5.261193
975.073144,5.187189,5.240563,5.175386,5.248245,5.261731
975.573144,5.187170,5.240083,5.175081,5.248233,5.262123
976.073144,5.187158,5.240039,5.174790,5.247990,5.261351
976.573144,5.185480,5.238933,5.173793,5.246591,5.260920
977.073144,5.185927,5.239388,5.174116,5.247219,5.261040
977.573144,5.187443,5.240967,5.175411,5.248712,5.262373
978.073144,5.189109,5.242666,5.177356,5.250827,5.264803
978.573144,5.189517,5.242918,5.177495,5.251064,5.265075
979.073144,5.190041,5.243841,5.178196,5.252229,5.265916
979.573144,5.190875,5.244738,5.178740,5.252873,5.266667
980.073144,5.190593,5.244442,5.178521,5.252767,5.266453
980.573144,5.191672,5.245548,5.179360,5.253577,5.267055
981.073144,5.191811,5.245753,5.179483,5.253754,5.267497
981.573144,5.192893,5.246705,5.180315,5.254788,5.268281
982.073144,5.193467,5.247413,5.180992,5.255825,5.269151
982.573144,5.194523,5.248971,5.182511,5.257625,5.270836
983.073144,5.197180,5.251392,5.184557,5.259839,5.273127
983.573144,5.199203,5.253567,5.186072,5.261883,5.275469
984.073144,5.201124,5.255553,5.188168,5.263952,5.277082
984.573144,5.202725,5.257389,5.189658,5.265905,5.278801
985.073144,5.204655,5.259258,5.191316,5.267831,5.280698
985.573144,5.206222,5.261207,5.192905,5.270023,5.282989
986.073144,5.209342,5.265480,5.196545,5.274050,5.287092
986.573144,5.214436,5.270931,5.202020,5.279438,5.292971
987.073144,5.219391,5.276866,5.206970,5.285007,5.298815
987.573144,5.223607,5.281641,5.211249,5.289955,5.304178
988.073144,5.227333,5.285400,5.214768,5.293855,5.308468
988.573144,5.228268,5.286486,5.215520,5.295220,5.309460
989.073144,5.230567,5.289188,5.217816,5.298034,5.312626
989.573144,5.233311,5.292135,5.220210,5.300830,5.315573
990.073144,5.258382,5.316344,5.245138,5.323854,5.337298
990.573144,5.260922,5.319441,5.248272,5.327718,5.340651
991.073144,5.262873,5.321245,5.250200,5.329907,5.343336
991.573144,5.265639,5.324724,5.253252,5.333230,5.346981
992.073144,5.268070,5.327206,5.255472,5.335783,5.349718
992.573144,5.269166,5.328458,5.256627,5.336792,5.351085
993.073144,5.270408,5.329744,5.258218,5.338433,5.352720
993.573144,5.272139,5.331650,5.259851,5.339985,5.354414
994.073144,5.272699,5.332354,5.260440,5.340766,5.355194
994.573144,5.273674,5.333376,5.261160,5.341695,5.356390
995.073144,5.273414,5.333261,5.261078,5.342133,5.356820
995.573144,5.275044,5.334827,5.262120,5.343552,5.358265
996.073144,5.275746,5.335800,5.263038,5.344561,5.359349
996.573144,5.278037,5.338401,5.265255,5.347306,5.362147
997.073144,5.280563,5.340864,5.267436,5.350154,5.364787
997.573144,5.282097,5.342809,5.269209,5.351803,5.366066
998.073144,5.283194,5.344061,5.270122,5.352823,5.366842
998.573144,5.282686,5.343602,5.269467,5.353280,5.367286
999.073144,5.283617,5.344687,5.270060,5.354079,5.368639
999.573144,5.284987,5.346387,5.271522,5.355344,5.369889
1000.073144,5.285813,5.347085,5.272204,5.356678,5.370800
1000.573144,5.287188,5.348632,5.273693,5.357921,5.371670
1001.073144,5.287586,5.349297,5.273908,5.358225,5.372130
1001.573144,5.287332,5.349057,5.273634,5.358172,5.371987
1002.073144,5.286357,5.348462,5.272838,5.357423,5.371577
1002.573144,5.286609,5.348518,5.272993,5.357646,5.371623
1003.073144,5.288052,5.350213,5.274431,5.359362,5.373338
1003.573144,5.290257,5.352212,5.276412,5.361519,5.375173
1004.073144,5.292172,5.354308,5.278222,5.363660,5.377124
1004.573144,5.292934,5.354966,5.278929,5.364205,5.377787
1005.073144,5.291999,5.354400,5.277970,5.363370,5.377193
1005.573144,5.291407,5.353550,5.277407,5.363536,5.377493
1006.073144,5.293740,5.356004,5.279428,5.365973,5.379613
1006.573144,5.295986,5.359058,5.281957,5.368307,5.382360
1007.073144,5.298043,5.361288,5.283719,5.370565,5.384753
1007.573144,5.300025,5.363521,5.285553,5.372919,5.387070
1008.073144,5.301531,5.365441,5.287341,5.374782,5.389143
1008.573144,5.303484,5.367775,5.288748,5.376692,5.391208
1009.073144,5.305728,5.370368,5.290951,5.379364,5.394170
1009.573144,5.309417,5.374743,5.295410,5.383973,5.398637
1010.073144,5.311313,5.377419,5.297340,5.386576,5.401637
1010.573144,5.313872,5.379998,5.299535,5.389109,5.404244
1011.073144,5.315331,5.382089,5.301110,5.391231,5.406720
1011.573144,5.316786,5.383723,5.302411,5.392867,5.408661
1012.073144,5.339657,5.405798,5.325285,5.414904,5.428994
1012.573144,5.341847,5.407805,5.327122,5.416932,5.431148
1013.073144,5.342970,5.408807,5.328149,5.417697,5.432419
1013.573144,5.343853,5.409567,5.328642,5.418785,5.433206
1014.073144,5.346180,5.411993,5.331279,5.421431,5.435864
1014.573144,5.347491,5.413795,5.332715,5.423031,5.437492
1015.073144,5.350164,5.416793,5.335489,5.425786,5.440619
1015.573144,5.352263,5.419166,5.337140,5.428598,5.443868
1016.073144,5.352026,5.418916,5.336949,5.427855,5.442830
1016.573144,5.352558,5.419734,5.337324,5.429038,5.444601
1017.073144,5.355306,5.422583,5.340440,5.432130,5.447799
1017.573144,5.358255,5.425978,5.343415,5.435527,5.451377
1018.073144,5.360427,5.428626,5.346154,5.438269,5.454199
1018.573144,5.362508,5.430667,5.347942,5.440426,5.456416
1019.073144,5.363169,5.432093,5.348761,5.441592,5.457489
1019.573144,5.361482,5.430568,5.346888,5.440170,5.456181
1020.073144,5.362477,5.431691,5.347858,5.441399,5.457565
1020.573144,5.363967,5.433354,5.349366,5.443160,5.459006
1021.073144,5.366603,5.436535,5.351810,5.446315,5.461998
1021.573144,5.369546,5.439627,5.354953,5.449459,5.464739
1022.073144,5.371136,5.441261,5.356390,5.451401,5.466537
1022.573144,5.371877,5.442493,5.357096,5.452413,5.467517
1023.073144,5.371046,5.441953,5.356223,5.452016,5.467032
1023.573144,5.371679,5.442773,5.356512,5.452741,5.467755
1024.073144,5.374446,5.445754,5.358973,5.455438,5.470746
1024.573144,5.377501,5.449107,5.362272,5.459228,5.474509
1025.073144,5.379134,5.450799,5.363520,5.461034,5.476349
1025.573144,5.380397,5.452458,5.364644,5.462662,5.478153
1026.073144,5.380328,5.452970,5.364620,5.463030,5.478122
