?? [s],A.dY [mm],B.dY [mm],C.dY [mm],D.dY [mm],E.dY [mm]
0.000000,0.000000,0.000000,0.000000,0.000000,0.000000
10.000000,0.057764,0.058665,0.057224,0.058704,0.059332
20.000000,0.160516,0.161829,0.161318,0.162052,0.162727
30.000000,0.196409,0.196385,0.197327,0.197381,0.198728
40.000000,0.216448,0.216616,0.217591,0.217118,0.218373
50.000000,0.320510,0.319786,0.320769,0.320568,0.321653
60.000000,0.376043,0.375454,0.375413,0.376190,0.376417
70.000000,0.411723,0.412722,0.412100,0.412632,0.413420
80.000000,0.472236,0.470580,0.471840,0.472014,0.472847
90.000000,0.546662,0.545804,0.547619,0.546870,0.549033
100.000000,0.575184,0.573749,0.575118,0.574840,0.575989
110.000000,0.632189,0.631934,0.633286,0.632665,0.633516
120.000000,0.668734,0.669188,0.671064,0.670134,0.671611
130.000000,0.737041,0.737269,0.740163,0.738201,0.738837
140.000000,0.800314,0.801067,0.803476,0.801580,0.802857
150.000000,0.838057,0.839314,0.842340,0.840565,0.841137
160.000000,0.892424,0.893144,0.897919,0.894581,0.895671
170.000000,0.943276,0.944859,0.949125,0.945473,0.946807
180.000000,1.016374,1.018727,1.022961,1.019985,1.021392
190.000000,1.064045,1.066534,1.070962,1.067698,1.070044
200.000000,1.118743,1.120367,1.124910,1.121131,1.122402
210.000000,1.174796,1.176024,1.181422,1.177846,1.178930
220.000000,1.262631,1.265181,1.271129,1.266328,1.267574
230.000000,1.309730,1.311674,1.318509,1.313687,1.314549
240.000000,1.335193,1.338561,1.343987,1.340133,1.340446
250.000000,1.466310,1.469461,1.475347,1.470750,1.471813
260.000000,1.547950,1.551093,1.556114,1.552294,1.553169
270.000000,1.609860,1.611724,1.617433,1.613218,1.614498
280.000000,1.666955,1.668788,1.675369,1.670745,1.672848
290.000000,1.767722,1.769625,1.775638,1.770932,1.772045
300.000000,1.856115,1.857639,1.864582,1.859604,1.860987
310.000000,1.991670,1.992773,1.999971,1.994937,1.996247
320.000000,2.041706,2.042695,2.047699,2.044472,2.045456
330.000000,2.067073,2.067821,2.072446,2.069169,2.071407
340.000000,2.167953,2.167128,2.170596,2.168875,2.170675
350.000000,2.206715,2.207450,2.211351,2.209429,2.210580
360.000000,2.219693,2.220163,2.224198,2.221962,2.223909
370.000000,2.333192,2.332520,2.336650,2.335062,2.337206
380.000000,2.378756,2.378304,2.382984,2.379954,2.382377
390.000000,2.415166,2.414362,2.419041,2.416392,2.418769
400.000000,2.433842,2.433615,2.437738,2.435667,2.436567
410.000000,2.530083,2.530143,2.534113,2.532204,2.534822
420.000000,2.567758,2.567819,2.571968,2.569508,2.571812
430.000000,2.589880,2.589708,2.593746,2.592371,2.594408
440.000000,2.642030,2.641900,2.646150,2.644490,2.646572
450.000000,2.683545,2.683139,2.687203,2.685971,2.687986
460.000000,2.734369,2.734615,2.737862,2.737149,2.739154
470.000000,2.795035,2.795798,2.799337,2.798864,2.801382
480.000000,2.834771,2.835165,2.839210,2.838371,2.841453
490.000000,2.862149,2.863153,2.866897,2.866771,2.869897
500.000000,2.928701,2.930429,2.933496,2.933894,2.937206
510.000000,2.962426,2.964488,2.967045,2.968263,2.971250
520.000000,3.011590,3.014067,3.016267,3.017461,3.021019
530.000000,3.061084,3.063308,3.065287,3.067157,3.071171
540.000000,3.096970,3.099878,3.101212,3.103445,3.106863
550.000000,3.149569,3.153118,3.153658,3.156500,3.160604
560.000000,3.183239,3.187180,3.187095,3.190314,3.194378
570.000000,3.237413,3.241168,3.240841,3.245306,3.249140
580.000000,3.291926,3.295395,3.295868,3.300636,3.304896
590.000000,3.327101,3.331011,3.330292,3.335515,3.340017
600.000000,3.393328,3.397360,3.396338,3.402350,3.407813
610.000000,3.429996,3.434444,3.432838,3.438534,3.444578
620.000000,3.473078,3.478577,3.475946,3.483309,3.489151
630.000000,3.520002,3.524942,3.522437,3.530394,3.536626
640.000000,3.556487,3.562212,3.559291,3.567795,3.574421
650.000000,3.616826,3.622410,3.619720,3.628701,3.635210
660.000000,3.639490,3.646286,3.643626,3.653036,3.659833
670.000000,3.704177,3.712014,3.707254,3.718452,3.725774
680.000000,3.726004,3.734947,3.730465,3.741572,3.749408
690.000000,3.791794,3.800423,3.794911,3.807311,3.815191
700.000000,3.812730,3.822312,3.816373,3.829164,3.836891
710.000000,3.910824,3.921456,3.914803,3.928850,3.937691
720.000000,3.938758,3.949954,3.941946,3.957272,3.966670
730.000000,3.960271,3.971866,3.965294,3.980004,3.989743
740.000000,4.018755,4.031003,4.022531,4.039717,4.048817
750.000000,4.045386,4.058216,4.048754,4.066770,4.076837
760.000000,4.100333,4.113356,4.103747,4.122770,4.132986
770.000000,4.137662,4.152081,4.141095,4.161395,4.172504
780.000000,4.182548,4.196753,4.185204,4.206006,4.216994
790.000000,4.262228,4.277983,4.264656,4.288200,4.301410
800.000000,4.289988,4.306650,4.292606,4.317012,4.330351
810.000000,4.320896,4.337683,4.323273,4.348083,4.361377
820.000000,4.380014,4.397448,4.382349,4.409379,4.423646
830.000000,4.417133,4.436370,4.419970,4.447756,4.462391
840.000000,4.449110,4.468080,4.451473,4.479323,4.494178
850.000000,4.490494,4.511051,4.493381,4.522770,4.538589
860.000000,4.548994,4.570577,4.551628,4.583097,4.600367
870.000000,4.577886,4.600186,4.580781,4.612333,4.629831
880.000000,4.629759,4.652914,4.633367,4.666004,4.684225
890.000000,4.670362,4.694546,4.673474,4.708394,4.725745
900.000000,4.731338,4.756243,4.733911,4.770908,4.789977
910.000000,4.748584,4.774550,4.750990,4.788889,4.807630
920.000000,4.813371,4.841007,4.815863,4.855715,4.874939
930.000000,4.846562,4.875116,4.849352,4.890100,4.910224
940.000000,4.899964,4.929410,4.902380,4.944818,4.965217
950.000000,4.947535,4.976566,4.950001,4.992327,5.013418
960.000000,5.013075,5.047420,5.015905,5.062841,5.084623
970.000000,5.080689,5.114923,5.083145,5.130148,5.152809
980.000000,5.098601,5.133392,5.101263,5.150822,5.173126
990.000000,5.114799,5.150875,5.117437,5.167666,5.190372
1000.000000,5.198946,5.236731,5.201271,5.255330,5.278547
1010.000000,5.216847,5.254964,5.219665,5.272820,5.297457
1020.000000,5.272642,5.310914,5.274869,5.330035,5.354788
1030.000000,5.296711,5.337298,5.299183,5.356003,5.381503
1040.000000,5.364734,5.405873,5.366895,5.425133,5.450634
1050.000000,5.401874,5.445436,5.404186,5.465369,5.492595
1060.000000,5.429767,5.475182,5.432674,5.495463,5.523030
1095.731924,5.612017,5.661433,5.614541,5.683134,5.713220
1105.731924,5.640918,5.691897,5.642030,5.714372,5.744157
1111.707301,5.667692,5.720207,5.669338,5.743353,5.774828
1116.707301,5.683404,5.737031,5.684414,5.760259,5.791255
1121.707301,5.723218,5.776405,5.723401,5.798658,5.829727
1126.707301,5.744615,5.799007,5.745800,5.822421,5.853792
1131.707301,5.756491,5.811169,5.757458,5.834659,5.866754
1134.030838,5.761849,5.817654,5.757629,5.841425,5.874543
1134.530838,5.764375,5.819891,5.765183,5.844162,5.876434
1135.030838,5.765349,5.820127,5.766721,5.844623,5.876174
1135.530838,5.767591,5.823329,5.769116,5.847525,5.879253
1136.030838,5.771565,5.827436,5.772477,5.851329,5.884229
1136.530838,5.775280,5.830624,5.776281,5.856314,5.888342
1137.030838,5.781187,5.837668,5.781349,5.861216,5.892828
1137.530838,5.786475,5.842594,5.787390,5.866645,5.900115
1138.030838,5.791564,5.847522,5.793144,5.872097,5.904965
1138.530838,5.796823,5.852820,5.797795,5.878035,5.910843
1139.030838,5.800503,5.859206,5.802348,5.881922,5.915762
1139.530838,5.803176,5.861313,5.804500,5.885844,5.919717
1140.030838,5.805041,5.862783,5.806134,5.888020,5.920727
1140.530838,5.806943,5.864637,5.807019,5.889602,5.922909
1141.030838,5.809063,5.867036,5.810398,5.892543,5.925537
1141.530838,5.813190,5.870976,5.813394,5.895995,5.928935
1142.030838,5.815967,5.873990,5.816473,5.899111,5.931994
1142.530838,5.820278,5.878262,5.820917,5.903200,5.936377
1143.030838,5.822894,5.881713,5.823489,5.906418,5.939616
1143.530838,5.824906,5.884331,5.826240,5.909613,5.942274
1144.030838,5.827027,5.885769,5.827140,5.910206,5.944115
1144.530838,5.827294,5.885616,5.828150,5.911094,5.945227
1145.030838,5.827815,5.886853,5.828841,5.911953,5.945832
1145.530838,5.829776,5.888227,5.829684,5.912883,5.947412
1146.030838,5.832050,5.890288,5.831771,5.915165,5.949182
1146.530838,5.832446,5.892658,5.832565,5.915908,5.950498
1147.030838,5.833707,5.892810,5.834219,5.917407,5.951510
1147.530838,5.836048,5.894365,5.836054,5.919211,5.953530
1148.030838,5.839162,5.897286,5.839094,5.922465,5.956974
1148.530838,5.837882,5.896239,5.838602,5.921336,5.955801
1149.030838,5.839014,5.897974,5.839197,5.922841,5.956935
1149.530838,5.839735,5.898359,5.840123,5.923807,5.957522
1150.030838,5.840392,5.899526,5.840607,5.924572,5.958410
1150.530838,5.840435,5.899741,5.840429,5.924905,5.959268
1151.030838,5.842034,5.901416,5.842530,5.926380,5.961056
1151.530838,5.844806,5.903912,5.845115,5.929252,5.963317
1152.030838,5.846333,5.905441,5.846915,5.931030,5.964999
1152.530838,5.846983,5.906654,5.847853,5.931968,5.966757
1153.030838,5.846660,5.906108,5.847782,5.931730,5.966051
1153.530838,5.846183,5.905337,5.846772,5.931066,5.964759
1154.030838,5.845049,5.904018,5.844977,5.929380,5.964231
1154.530838,5.843633,5.902902,5.844162,5.927993,5.962570
1155.030838,5.841984,5.901986,5.842709,5.926321,5.960923
1155.530838,5.842275,5.900635,5.842571,5.926378,5.960275
1156.030838,5.843094,5.901792,5.843608,5.927232,5.961686
1156.530838,5.844281,5.902933,5.844767,5.928834,5.962641
1157.030838,5.846986,5.906938,5.847379,5.932129,5.966458
1157.530838,5.851253,5.911262,5.852183,5.936666,5.971596
1158.030838,5.855769,5.916318,5.856840,5.942873,5.976349
1158.530838,5.888376,5.946743,5.888078,5.971318,6.005462
1159.030838,5.893016,5.951815,5.893521,5.976941,6.011045
1159.530838,5.892518,5.951523,5.893395,5.977019,6.011349
1160.030838,5.894092,5.953730,5.894831,5.979083,6.013081
1160.530838,5.898672,5.958572,5.899317,5.983782,6.017507
1161.030838,5.902459,5.963977,5.903682,5.989189,6.022540
1161.530838,5.909658,5.970157,5.910065,5.995827,6.030312
1162.030838,5.916980,5.977364,5.917215,6.002662,6.036844
1162.530838,5.921837,5.982117,5.921718,6.007498,6.041770
1163.030838,5.923501,5.984371,5.924152,6.009851,6.044171
1163.530838,5.923511,5.983031,5.923096,6.008983,6.043433
1164.030838,5.920711,5.981407,5.921025,6.006637,6.041702
1164.530838,5.918053,5.979421,5.919012,6.005426,6.039860
1165.030838,5.918447,5.978790,5.919436,6.005681,6.040275
1165.530838,5.919796,5.980971,5.920522,6.006721,6.041630
1166.030838,5.921508,5.982489,5.922210,6.008604,6.043192
1166.530838,5.925008,5.985879,5.924742,6.011033,6.046174
1167.030838,5.927959,5.987740,5.927756,6.013999,6.048221
1167.530838,5.928444,5.988970,5.928597,6.015071,6.049955
1168.030838,5.928244,5.989087,5.928576,6.014557,6.049400
1168.530838,5.927692,5.988391,5.927712,6.014088,6.048882
1169.030838,5.927116,5.988165,5.927208,6.013358,6.048250
1169.530838,5.927392,5.988727,5.927207,6.013769,6.049580
1170.030838,5.928969,5.989228,5.929551,6.015997,6.051274
1170.530838,5.931427,5.992433,5.932183,6.019145,6.054005
1171.030838,5.935655,5.996189,5.936169,6.023327,6.058415
1171.530838,5.939867,6.001727,5.940149,6.027622,6.062828
1172.030838,5.943199,6.005736,5.944386,6.031829,6.066565
1172.530838,5.946645,6.009458,5.947366,6.036151,6.071364
1173.030838,5.949780,6.013364,5.951311,6.039986,6.074919
1173.530838,5.951977,6.016104,5.953227,6.042836,6.077807
1174.030838,5.954765,6.018879,5.956090,6.045387,6.080603
1174.530838,5.957603,6.021916,5.958343,6.048087,6.083502
1175.030838,5.961872,6.025735,5.962385,6.052831,6.087944
1175.530838,5.964651,6.029439,5.966012,6.055098,6.091131
1176.030838,5.967956,6.031823,5.967703,6.058311,6.093882
1176.530838,5.969895,6.033766,5.969617,6.060564,6.096151
1177.030838,5.971976,6.036343,5.972411,6.062423,6.098276
1177.530838,5.973840,6.037770,5.973284,6.064276,6.099602
1178.030838,5.975690,6.039980,5.975711,6.066486,6.102361
1178.530838,5.977795,6.041851,5.978008,6.068694,6.104756
1179.030838,5.979838,6.044538,5.979694,6.071205,6.107094
1179.530838,5.982197,6.046363,5.982443,6.073700,6.108919
1180.030838,5.983880,6.049419,5.984562,6.076377,6.111587
1180.530838,5.985375,6.050688,5.985811,6.077422,6.113144
1181.030838,5.985598,6.051486,5.986279,6.078301,6.113447
1181.530838,5.985928,6.051447,5.986487,6.078811,6.114014
1182.030838,5.987004,6.051548,5.987577,6.079003,6.115126
1182.530838,5.985905,6.050861,5.986587,6.078487,6.114150
1183.030838,5.985987,6.051774,5.986413,6.077826,6.113735
1183.530838,5.985299,6.050688,5.985501,6.077573,6.112871
1184.030838,5.985204,6.050387,5.985982,6.077815,6.113060
1184.530838,5.986461,6.051854,5.986746,6.078998,6.114257
1185.030838,5.987762,6.053226,5.988128,6.080428,6.115517
1185.530838,5.989134,6.055548,5.990025,6.082691,6.118395
1186.030838,5.991092,6.056441,5.991618,6.084747,6.119980
1186.530838,5.991630,6.057463,5.992305,6.085122,6.120784
1187.030838,5.993616,6.059500,5.994286,6.087008,6.123005
1187.530838,5.995028,6.061889,5.995822,6.088371,6.124837
1188.030838,5.995706,6.062642,5.996744,6.090090,6.125619
1188.530838,5.998702,6.065829,5.999682,6.093090,6.128764
1189.030838,6.025645,6.091095,6.025329,6.117709,6.152698
1189.530838,6.029372,6.094261,6.028936,6.121117,6.156373
1190.030838,6.031340,6.096260,6.031515,6.123575,6.158821
1190.530838,6.031513,6.096727,6.031654,6.124022,6.158804
1191.030838,6.031674,6.097401,6.031756,6.124063,6.160518
1191.530838,6.033643,6.099491,6.034723,6.126851,6.162840
1192.030838,6.039217,6.106716,6.040476,6.133323,6.169282
1192.530838,6.045481,6.112452,6.045811,6.139597,6.175547
1193.030838,6.053300,6.121198,6.054007,6.147195,6.183797
1193.530838,6.059864,6.126776,6.060070,6.153300,6.189422
1194.030838,6.063643,6.130132,6.063939,6.157482,6.194778
1194.530838,6.067027,6.133746,6.066957,6.160967,6.198199
1195.030838,6.064586,6.131648,6.064533,6.159032,6.195591
1195.530838,6.061224,6.128033,6.061036,6.154706,6.192048
1196.030838,6.057808,6.125365,6.058352,6.152181,6.189329
1196.530838,6.057640,6.125272,6.057851,6.152207,6.189131
1197.030838,6.059266,6.126561,6.059540,6.153604,6.190553
1197.530838,6.062764,6.129950,6.062758,6.156726,6.193282
1198.030838,6.066239,6.133899,6.066547,6.161102,6.197749
1198.530838,6.071350,6.138889,6.071744,6.166981,6.203378
1199.030838,6.073634,6.141688,6.073593,6.169722,6.205983
1199.530838,6.075161,6.143576,6.075520,6.171900,6.207816
1200.030838,6.075300,6.143963,6.075360,6.171535,6.207957
1200.530838,6.074857,6.143996,6.075527,6.171210,6.207737
1201.030838,6.074138,6.142062,6.074014,6.170096,6.206949
1201.530838,6.074069,6.142460,6.074128,6.169905,6.207191
1202.030838,6.074912,6.143209,6.075021,6.171580,6.209140
1202.530838,6.077304,6.145713,6.076986,6.173826,6.210956
1203.030838,6.079721,6.149110,6.080046,6.177615,6.214012
1203.530838,6.083986,6.153847,6.084498,6.181996,6.218304
1204.030838,6.085614,6.155930,6.086714,6.184078,6.220605
1204.530838,6.088200,6.159457,6.089216,6.187044,6.223706
1205.030838,6.091328,6.161929,6.091969,6.188879,6.226785
1205.530838,6.091830,6.162432,6.092578,6.190147,6.227057
1206.030838,6.092226,6.162753,6.092769,6.190984,6.227925
1206.530838,6.090980,6.162108,6.091631,6.189669,6.227126
1207.030838,6.091396,6.161880,6.092011,6.190264,6.227569
1207.530838,6.090863,6.162277,6.092000,6.190780,6.227873
1208.030838,6.092212,6.163322,6.093054,6.191375,6.228640
1208.530838,6.095173,6.166829,6.095925,6.193768,6.231252
1209.030838,6.098681,6.169447,6.098462,6.196800,6.235026
1209.530838,6.103163,6.174574,6.102899,6.201735,6.239570
1210.030838,6.105148,6.176761,6.105552,6.203508,6.241778
1210.530838,6.109112,6.180418,6.109149,6.207795,6.245290
1211.030838,6.111703,6.183390,6.112015,6.211456,6.248423
1211.530838,6.112233,6.183447,6.112530,6.211921,6.249739
1212.030838,6.113243,6.183865,6.113042,6.213163,6.250730
1212.530838,6.115762,6.187477,6.115903,6.215341,6.253696
1213.030838,6.118101,6.190079,6.118484,6.218462,6.256877
1213.530838,6.119847,6.192085,6.119985,6.221132,6.258171
1214.030838,6.122458,6.194948,6.122785,6.222959,6.260892
1214.530838,6.125663,6.197687,6.126006,6.226731,6.264187
1215.030838,6.126898,6.200374,6.127783,6.229012,6.266753
1215.530838,6.130239,6.203730,6.130772,6.232610,6.270365
1216.030838,6.133308,6.206600,6.133924,6.235697,6.273296
1216.530838,6.135643,6.209951,6.136492,6.238165,6.276377
1217.030838,6.138783,6.213061,6.138858,6.240685,6.279786
1217.530838,6.141537,6.216077,6.142092,6.244845,6.283094
1218.030838,6.143559,6.217694,6.143713,6.245610,6.284942
1218.530838,6.170327,6.243234,6.169886,6.271921,6.308616
1219.030838,6.172305,6.245502,6.171485,6.273482,6.310505
1219.530838,6.171915,6.245483,6.172129,6.273587,6.310423
1220.030838,6.171047,6.243479,6.170757,6.272390,6.309394
1220.530838,6.169336,6.242255,6.169268,6.271516,6.308493
1221.030838,6.172810,6.246079,6.172100,6.274302,6.311775
1221.530838,6.175859,6.249664,6.175818,6.277930,6.315304
1222.030838,6.181445,6.254946,6.181398,6.283606,6.321341
1222.530838,6.185858,6.260322,6.186243,6.287734,6.326457
1223.030838,6.190277,6.264560,6.190300,6.293047,6.331113
1223.530838,6.193269,6.267576,6.193463,6.295603,6.334369
1224.030838,6.194126,6.267707,6.193561,6.295882,6.334742
1224.530838,6.193229,6.267797,6.193229,6.296070,6.334271
1225.030838,6.194760,6.267929,6.194323,6.297196,6.335774
1225.530838,6.194996,6.269531,6.195293,6.297822,6.336494
1226.030838,6.194798,6.269414,6.194550,6.297244,6.336669
1226.530838,6.195223,6.269333,6.195235,6.298220,6.336430
1227.030838,6.196562,6.270691,6.196622,6.299160,6.337693
1227.530838,6.197075,6.271148,6.197168,6.299330,6.338555
1228.030838,6.196977,6.271405,6.196382,6.299354,6.337594
1228.530838,6.196455,6.270127,6.196524,6.299426,6.338084
1229.030838,6.197386,6.270501,6.196791,6.300326,6.338531
1229.530838,6.197874,6.272379,6.197935,6.301262,6.340369
1230.030838,6.201337,6.275949,6.200799,6.304834,6.343362
1230.530838,6.204652,6.278788,6.204564,6.308389,6.346659
1231.030838,6.206644,6.281522,6.206512,6.310310,6.348822
1231.530838,6.210658,6.286616,6.210443,6.315496,6.353583
1232.030838,6.214284,6.289855,6.214724,6.319481,6.357777
1232.530838,6.217154,6.293010,6.216798,6.322479,6.361115
1233.030838,6.218474,6.294739,6.217872,6.323701,6.361931
1233.530838,6.221417,6.297988,6.221911,6.327088,6.365978
1234.030838,6.222271,6.299366,6.222527,6.328018,6.367447
1234.530838,6.224664,6.302039,6.225110,6.331570,6.370137
1235.030838,6.227970,6.305555,6.228190,6.334522,6.374488
1235.530838,6.231163,6.309236,6.231916,6.338443,6.378686
1236.030838,6.234932,6.313544,6.235979,6.342851,6.382642
1236.530838,6.240271,6.319142,6.240870,6.347883,6.387470
1237.030838,6.242854,6.321421,6.243307,6.351827,6.391027
1237.530838,6.244626,6.322650,6.244332,6.353091,6.393002
1238.030838,6.247059,6.324916,6.246254,6.355569,6.395188
1238.530838,6.249610,6.327736,6.249426,6.358034,6.398359
1239.030838,6.249700,6.327429,6.249222,6.358393,6.397848
1239.530838,6.250435,6.328597,6.249942,6.359722,6.399430
1240.030838,6.251393,6.329922,6.251464,6.361221,6.400616
1240.530838,6.251561,6.330869,6.251781,6.361639,6.401741
1241.030838,6.253853,6.333660,6.253838,6.363623,6.402968
1241.530838,6.255558,6.334756,6.255065,6.365077,6.405052
1242.030838,6.255912,6.334872,6.255657,6.365748,6.405792
1242.530838,6.256685,6.336906,6.256995,6.366947,6.406604
1243.030838,6.259036,6.338902,6.258882,6.369356,6.409477
1243.530838,6.259956,6.339508,6.259688,6.370614,6.410186
1244.030838,6.259214,6.339496,6.259373,6.370386,6.410398
1244.530838,6.260004,6.340019,6.259953,6.370060,6.410237
1245.030838,6.258975,6.339314,6.259319,6.369734,6.409845
1245.530838,6.258733,6.337781,6.258320,6.368965,6.408569
1246.030838,6.258995,6.339315,6.259434,6.369960,6.409403
1246.530838,6.258560,6.338653,6.258459,6.369201,6.409017
1247.030838,6.257671,6.338081,6.257347,6.368238,6.408522
1247.530838,6.258192,6.339556,6.258432,6.369485,6.409121
1248.030838,6.260020,6.340144,6.259945,6.370682,6.410020
1248.530838,6.261143,6.341629,6.261159,6.372169,6.412359
1249.030838,6.264549,6.345383,6.264575,6.375749,6.415650
1249.530838,6.267658,6.349625,6.268170,6.378998,6.419727
1250.030838,6.270635,6.352029,6.271038,6.381385,6.422063
1250.530838,6.273265,6.355192,6.273711,6.385036,6.425845
1251.030838,6.277796,6.359630,6.278358,6.389492,6.430426
1251.530838,6.279982,6.361894,6.280503,6.392816,6.433435
1252.030838,6.284571,6.366326,6.284702,6.396797,6.437676
